Header
File Version,1.24
Patient Information
ID,10011
Name,
Comment,DELBOX,,
Birth Date,0000/00/00
Age, 29y
Sex,Male
Analyze Information
AnalyzeMode,Integral
Pre Time[s],5.0
Post Time[s],0.0
Recovery Time[s],40.0
Base Time[s],5
Fitting Degree,0
HPF[Hz],No Filter
LPF[Hz],No Filter
Moving Average[s],5.0
Measure Information
Date,2003/01/01 01:03
Probe Type,adult
Mode,3x11
Wave[nm],695,830
Wave Length,CH1(703.0),CH1(827.2),CH2(703.0),CH2(826.5),CH3(703.0),CH3(826.5),CH4(703.0),CH4(827.2),CH5(703.0),CH5(827.2),CH6(703.0),CH6(827.2),CH7(703.0),CH7(827.2),CH8(703.7),CH8(827.2),CH9(703.7),CH9(827.2),CH10(704.5),CH10(827.9),CH11(703.0),CH11(827.2),CH12(703.7),CH12(827.2),CH13(703.0),CH13(826.5),CH14(703.7),CH14(827.2),CH15(703.0),CH15(827.2),CH16(703.0),CH16(827.9),CH17(703.0),CH17(827.2),CH18(704.5),CH18(826.5),CH19(703.7),CH19(827.2),CH20(704.5),CH20(826.5),CH21(704.5),CH21(827.9),CH22(703.7),CH22(827.2),CH23(703.7),CH23(827.2),CH24(703.7),CH24(827.2),CH25(703.7),CH25(827.2),CH26(703.0),CH26(827.9),CH27(703.0),CH27(827.9),CH28(704.5),CH28(826.5),CH29(704.5),CH29(826.5),CH30(704.5),CH30(826.5),CH31(704.5),CH31(826.5),CH32(703.7),CH32(826.5),CH33(703.7),CH33(827.2),CH34(704.5),CH34(826.5),CH35(703.7),CH35(827.2),CH36(703.0),CH36(826.5),CH37(703.0),CH37(827.9),CH38(704.5),CH38(826.5),CH39(704.5),CH39(826.5),CH40(703.7),CH40(827.2),CH41(704.5),CH41(826.5),CH42(704.5),CH42(825.7),CH43(703.7),CH43(826.5),CH44(704.5),CH44(826.5),CH45(704.5),CH45(826.5),CH46(703.0),CH46(826.5),CH47(703.0),CH47(826.5),CH48(704.5),CH48(826.5),CH49(704.5),CH49(826.5),CH50(703.7),CH50(827.2),CH51(703.7),CH51(827.2),CH52(704.5),CH52(825.7)
Analog Gain,46.27451000,46.27451000,46.27451000,46.27451000,18.82352900,18.82352900,18.82352900,18.82352900,41.56862700,41.56862700,41.56862700,41.56862700,3.60784300,3.60784300,3.60784300,3.60784300,10.82352900,10.82352900,10.82352900,10.82352900,22.74509800,22.74509800,46.27451000,46.27451000,4.94117600,4.94117600,18.82352900,18.82352900,4.31372500,4.31372500,41.56862700,41.56862700,1.25490200,1.25490200,3.60784300,3.60784300,1.25490200,1.25490200,10.82352900,10.82352900,13.25490200,13.25490200,22.74509800,22.74509800,4.94117600,4.94117600,4.94117600,4.94117600,4.31372500,4.31372500,4.31372500,4.31372500,1.25490200,1.25490200,1.25490200,1.25490200,1.25490200,1.25490200,1.25490200,1.25490200,13.25490200,13.25490200,22.74509800,22.74509800,20.39215700,20.39215700,4.94117600,4.94117600,1.25490200,1.25490200,4.31372500,4.31372500,1.25490200,1.25490200,1.25490200,1.25490200,1.25490200,1.25490200,1.25490200,1.25490200,1.25490200,1.25490200,13.25490200,13.25490200,20.39215700,20.39215700,20.39215700,20.39215700,1.25490200,1.25490200,1.25490200,1.25490200,1.25490200,1.25490200,1.25490200,1.25490200,1.25490200,1.25490200,1.25490200,1.25490200,1.25490200,1.25490200,1.25490200,1.25490200
Digital Gain,100.08000000,11.79000000,96.92000000,10.07000000,49.95000000,8.07000000,21.99000000,5.14000000,24.82000000,3.54000000,14.18000000,2.13000000,10.33000000,3.17000000,16.12000000,3.86000000,14.69000000,2.45000000,72.58000000,9.53000000,110.90000000,13.16000000,8.95000000,1.47000000,46.61000000,6.81000000,6.69000000,2.07000000,43.68000000,13.96000000,39.45000000,6.33000000,67.17000000,19.65000000,13.86000000,4.73000000,51.36000000,11.32000000,14.95000000,3.09000000,115.83000000,14.47000000,27.06000000,4.51000000,59.97000000,8.86000000,30.04000000,6.08000000,19.80000000,5.67000000,9.26000000,2.93000000,8.26000000,2.60000000,45.27000000,14.00000000,22.20000000,6.59000000,78.67000000,19.14000000,12.96000000,2.72000000,9.62000000,1.85000000,21.48000000,5.00000000,9.35000000,2.16000000,12.04000000,4.40000000,15.22000000,4.90000000,6.66000000,2.70000000,7.34000000,4.09000000,24.40000000,9.01000000,2.32000000,1.30000000,33.64000000,14.43000000,11.32000000,3.21000000,6.40000000,2.07000000,60.41000000,13.78000000,24.31000000,7.65000000,19.76000000,7.87000000,1.88000000,0.95000000,2.06000000,1.37000000,12.20000000,6.40000000,10.99000000,5.11000000,1.00000000,0.67000000,14.69000000,6.15000000
Sampling Period[s],0.1
StimType,EVENT
Stim Time[s]
F1,15,F2,15,F3,15,F4,15,F5,15,F6,15,F7,15,F8,15,F9,15,M,15
Repeat Count,0
Exception Ch,0,0,0,0,0,0,0,0,0,0,0,0,0,0,0,0,0,0,0,0,0,0,0,0,0,0,0,0,0,0,0,0,0,0,0,0,0,0,0,0,0,0,0,0,0,0,0,0,0,0,0,0






Data
Probe1(Deoxy),CH1,CH2,CH3,CH4,CH5,CH6,CH7,CH8,CH9,CH10,CH11,CH12,CH13,CH14,CH15,CH16,CH17,CH18,CH19,CH20,CH21,CH22,CH23,CH24,CH25,CH26,CH27,CH28,CH29,CH30,CH31,CH32,CH33,CH34,CH35,CH36,CH37,CH38,CH39,CH40,CH41,CH42,CH43,CH44,CH45,CH46,CH47,CH48,CH49,CH50,CH51,CH52,Mark,Time,BodyMovement,RemovalMark,PreScan
1,0.00555763,0.02082865,-0.00063719,0.00061507,0.00142090,0.00130170,0.00069384,0.00419795,0.00994048,0.01075912,0.00934491,0.03165985,0.02808923,0.00815621,0.00084995,0.00434281,0.00199472,0.00402721,0.00342887,0.00401879,-0.00729485,0.04626694,0.05242760,0.03057636,0.00657785,0.00285959,0.00161852,0.00207845,0.00200202,0.01198184,0.01518309,0.04446725,0.03146694,0.04385202,0.01478210,0.01009138,-0.00005676,0.00063134,0.00076627,0.00619595,0.10280879,0.00812669,0.01251310,0.04498647,0.03798287,0.01199442,0.00311991,-0.00257429,-0.00491535,-0.00704245,0.00389818,0.04950280,0, 00:00:00.0
2,0.00328662,0.01884776,-0.00004877,0.00038889,0.00116753,0.00114903,0.00074740,0.00401119,0.00967660,0.01037292,0.00890839,0.03015089,0.02698566,0.00841438,0.00067846,0.00419936,0.00190240,0.00391261,0.00339353,0.00409086,-0.00727104,0.04410778,0.05048624,0.02927382,0.00643948,0.00280112,0.00164698,0.00212468,0.00181882,0.01216676,0.01456835,0.04269154,0.02989084,0.04190814,0.01416990,0.00982346,-0.00073716,0.00082495,0.00073350,0.00548050,0.08602931,0.00769432,0.01214751,0.04327656,0.03640131,0.01158406,0.00302262,-0.00257078,-0.00478143,-0.00672249,0.00365687,0.03730468,0, 00:00:00.1
3,0.00420669,0.01813300,0.00095237,0.00045114,0.00088639,0.00061923,0.00091165,0.00382483,0.00947960,0.01005518,0.00776571,0.02867439,0.02558276,0.00847747,0.00077663,0.00414750,0.00202623,0.00387631,0.00326123,0.00402228,-0.00700918,0.04174019,0.04783666,0.02795120,0.00634415,0.00277951,0.00163575,0.00215825,0.00163342,0.01155809,0.01432237,0.04074945,0.02854598,0.03999568,0.01363507,0.00953294,-0.00044635,0.00090235,0.00066610,0.00474638,0.08863653,0.00711071,0.01184744,0.04240075,0.03478218,0.01118300,0.00299230,-0.00247333,-0.00463868,-0.00640604,0.00349200,0.06251403,0, 00:00:00.2
4,0.00409454,0.01764369,0.00173341,0.00006004,0.00044718,0.00048340,0.00088989,0.00365164,0.00903409,0.00952629,0.00688235,0.02722132,0.02458834,0.00805731,0.00082346,0.00411465,0.00168332,0.00368411,0.00310352,0.00388480,-0.00675111,0.03985336,0.04654239,0.02670501,0.00622852,0.00277287,0.00158083,0.00229122,0.00154617,0.01087748,0.01412191,0.03870282,0.02697087,0.03809629,0.01298120,0.00922210,0.00028966,0.00090555,0.00058697,0.00415260,0.08508218,0.00639736,0.01152099,0.04088017,0.03313459,0.01080849,0.00305914,-0.00234168,-0.00439715,-0.00607979,0.00329739,0.04761007,0, 00:00:00.3
5,0.00441609,0.01682006,0.00180177,-0.00044811,0.00056771,0.00079713,0.00076964,0.00343175,0.00873892,0.00860132,0.00663125,0.02561615,0.02325677,0.00777195,0.00071252,0.00394491,0.00177100,0.00364338,0.00293262,0.00379484,-0.00641422,0.03770664,0.04478264,0.02539598,0.00626366,0.00274723,0.00149216,0.00209533,0.00144748,0.00985261,0.01381814,0.03673732,0.02575418,0.03617157,0.01237832,0.00881545,0.00052290,0.00086435,0.00043431,0.00365035,0.09667339,0.00572292,0.01092441,0.03936364,0.03148959,0.01038571,0.00292489,-0.00219363,-0.00419028,-0.00573018,0.00309744,0.03314456,0, 00:00:00.4
6,0.00401824,0.01660791,0.00215377,-0.00090660,0.00062195,0.00067454,0.00070251,0.00325264,0.00841815,0.00850064,0.00780479,0.02446094,0.02197409,0.00723505,0.00058400,0.00388106,0.00137404,0.00349898,0.00268937,0.00365925,-0.00645914,0.03593255,0.04222178,0.02406094,0.00615161,0.00272597,0.00144797,0.00214572,0.00132506,0.00894611,0.01368439,0.03471386,0.02379292,0.03421285,0.01169256,0.00848286,0.00021678,0.00083684,0.00040953,0.00321629,0.09726615,0.00519526,0.01030515,0.03708550,0.02983683,0.00987678,0.00282846,-0.00209709,-0.00398575,-0.00542586,0.00295316,0.05375710,0, 00:00:00.5
7,0.00527545,0.01601971,0.00201984,-0.00086215,0.00083473,0.00077385,0.00032432,0.00310587,0.00816333,0.00841709,0.00730246,0.02338091,0.02071739,0.00679829,0.00044710,0.00398990,0.00105475,0.00352147,0.00245440,0.00365520,-0.00615184,0.03396654,0.03999908,0.02285998,0.00585208,0.00268380,0.00140607,0.00169218,0.00125005,0.00810057,0.01323572,0.03271630,0.02216561,0.03232086,0.01100787,0.00814167,-0.00016833,0.00094767,0.00039349,0.00278772,0.10144050,0.00464997,0.00981867,0.03481099,0.02821258,0.00943499,0.00275696,-0.00206204,-0.00380736,-0.00519054,0.00280965,0.05747446,0, 00:00:00.6
8,0.00434580,0.01524685,0.00147466,-0.00090869,0.00083809,0.00071312,0.00004685,0.00293489,0.00785446,0.00814850,0.00765980,0.02222013,0.01950371,0.00673770,0.00062117,0.00347820,0.00090771,0.00356157,0.00236004,0.00357223,-0.00604402,0.03202537,0.03768682,0.02151818,0.00577410,0.00249640,0.00136111,0.00138668,0.00118533,0.00777457,0.01293601,0.03077717,0.02088973,0.03046129,0.01041617,0.00779999,-0.00004448,0.00110878,0.00037165,0.00232216,0.09034890,0.00432518,0.00948518,0.03250938,0.02656686,0.00903311,0.00267820,-0.00200189,-0.00373295,-0.00506613,0.00264472,0.03876910,0, 00:00:00.7
9,0.00397766,0.01512930,0.00167877,-0.00080230,0.00060715,0.00066763,0.00005786,0.00281080,0.00749960,0.00768832,0.00999146,0.02095902,0.01820252,0.00666154,0.00087323,0.00301604,0.00085469,0.00359308,0.00221600,0.00342551,-0.00595825,0.02984332,0.03547261,0.02011662,0.00559229,0.00233254,0.00131118,0.00122552,0.00113073,0.00808621,0.01261456,0.02889074,0.01964122,0.02862523,0.00979574,0.00753478,0.00027061,0.00110578,0.00044930,0.00185154,0.08175953,0.00390265,0.00917323,0.03074382,0.02492744,0.00863421,0.00266138,-0.00191983,-0.00368667,-0.00490073,0.00252489,0.04950305,0, 00:00:00.8
10,0.00516130,0.01438155,0.00186829,-0.00056876,0.00033274,0.00056309,-0.00005513,0.00262532,0.00706623,0.00702419,0.00919051,0.01956749,0.01731243,0.00630019,0.00116315,0.00303926,0.00075258,0.00333488,0.00217697,0.00313101,-0.00552923,0.02745138,0.03331799,0.01887732,0.00533568,0.00219652,0.00124979,0.00126474,0.00105415,0.00836712,0.01229786,0.02705689,0.01821345,0.02687677,0.00919410,0.00724900,0.00051718,0.00099225,0.00050699,0.00156248,0.08635963,0.00338826,0.00875652,0.02902655,0.02339610,0.00837647,0.00262766,-0.00181595,-0.00348436,-0.00449179,0.00239117,0.05726191,0, 00:00:00.9
11,0.00588355,0.01335243,0.00133947,-0.00053633,0.00042973,0.00043099,-0.00006186,0.00246098,0.00661971,0.00653093,0.00876195,0.01822876,0.01608027,0.00587416,0.00132448,0.00271604,0.00099599,0.00312608,0.00206420,0.00289009,-0.00507742,0.02498315,0.03122966,0.01765797,0.00502415,0.00207052,0.00112920,0.00111642,0.00086699,0.00762100,0.01183899,0.02517019,0.01710816,0.02514269,0.00849823,0.00691830,0.00043594,0.00082681,0.00055720,0.00136315,0.08277534,0.00298501,0.00850888,0.02781987,0.02189111,0.00791366,0.00261039,-0.00168321,-0.00321911,-0.00413075,0.00222144,0.03620770,0, 00:00:01.0
12,0.00437354,0.01167808,0.00185328,-0.00029112,0.00035713,0.00054392,0.00004001,0.00232435,0.00629545,0.00610423,0.00973409,0.01675041,0.01461569,0.00553909,0.00127210,0.00210099,0.00071790,0.00295360,0.00185696,0.00295148,-0.00460655,0.02305654,0.02948196,0.01640834,0.00461059,0.00185739,0.00105010,0.00105383,0.00068753,0.00735870,0.01139043,0.02334611,0.01614999,0.02336037,0.00778922,0.00654894,0.00022557,0.00072977,0.00053485,0.00123615,0.09645866,0.00276282,0.00816805,0.02617058,0.02035089,0.00734393,0.00247702,-0.00161250,-0.00300710,-0.00379236,0.00205998,0.04316186,0, 00:00:01.1
13,0.00370513,0.00987844,0.00192933,-0.00031803,0.00052252,0.00063843,-0.00000475,0.00217965,0.00590200,0.00599551,0.00948058,0.01538381,0.01351211,0.00496693,0.00126972,0.00117778,0.00063016,0.00268664,0.00166767,0.00286333,-0.00409327,0.02156657,0.02738697,0.01519066,0.00425959,0.00170197,0.00099204,0.00104516,0.00058738,0.00632715,0.01096158,0.02159566,0.01473218,0.02160451,0.00712401,0.00600354,0.00006071,0.00077789,0.00055141,0.00123580,0.09429851,0.00262470,0.00767632,0.02439523,0.01886790,0.00685602,0.00226543,-0.00155701,-0.00275720,-0.00344628,0.00194317,0.05844688,0, 00:00:01.2
14,0.00287879,0.00872326,0.00128229,-0.00044706,0.00057529,0.00079640,-0.00000913,0.00201917,0.00548786,0.00559410,0.00870684,0.01420552,0.01236499,0.00470539,0.00103771,0.00115219,0.00071010,0.00248747,0.00154590,0.00307018,-0.00337002,0.01990073,0.02529873,0.01399395,0.00392165,0.00158644,0.00091179,0.00096290,0.00053733,0.00580974,0.01014920,0.01976129,0.01353308,0.01984034,0.00652794,0.00550440,-0.00009060,0.00085069,0.00051999,0.00122988,0.09582823,0.00247475,0.00706750,0.02212653,0.01731876,0.00636428,0.00206055,-0.00149616,-0.00252246,-0.00305996,0.00179136,0.04596087,0, 00:00:01.3
15,0.00302461,0.00870827,0.00116633,-0.00023896,0.00059016,0.00070957,0.00006933,0.00187859,0.00513296,0.00511022,0.00865908,0.01304945,0.01144059,0.00453832,0.00098801,0.00101600,0.00047305,0.00235736,0.00149704,0.00304138,-0.00283542,0.01829740,0.02311501,0.01284655,0.00359641,0.00144490,0.00083357,0.00098216,0.00053565,0.00498543,0.00922788,0.01812412,0.01253691,0.01810172,0.00598537,0.00511445,0.00021895,0.00078338,0.00053138,0.00116022,0.08454468,0.00221415,0.00655375,0.01990784,0.01584482,0.00581244,0.00186546,-0.00138937,-0.00233041,-0.00268781,0.00163910,0.04221472,0, 00:00:01.4
16,0.00282794,0.00817462,0.00142272,-0.00020421,0.00042804,0.00050884,0.00016738,0.00167335,0.00460704,0.00469473,0.00687410,0.01172854,0.01043081,0.00419621,0.00078382,0.00109311,0.00038667,0.00212994,0.00139133,0.00277860,-0.00252416,0.01678956,0.02118547,0.01153663,0.00329117,0.00131919,0.00075173,0.00091997,0.00051524,0.00414472,0.00836367,0.01646528,0.01153290,0.01646619,0.00541168,0.00477720,0.00047763,0.00062477,0.00045109,0.00103713,0.08280648,0.00199370,0.00605532,0.01825983,0.01441776,0.00527669,0.00180509,-0.00124824,-0.00209906,-0.00237536,0.00151874,0.05773313,0, 00:00:01.5
17,0.00258458,0.00625519,0.00126399,-0.00002633,0.00064424,0.00013785,0.00010914,0.00149944,0.00414292,0.00438336,0.00482807,0.01051636,0.00932205,0.00354491,0.00053271,0.00126820,0.00038219,0.00181924,0.00128552,0.00258056,-0.00221686,0.01488191,0.01891003,0.01034485,0.00296018,0.00119603,0.00064091,0.00077504,0.00037072,0.00336197,0.00756919,0.01470654,0.01019200,0.01478013,0.00475100,0.00431425,0.00046432,0.00048190,0.00040169,0.00094882,0.07994144,0.00182806,0.00545684,0.01614634,0.01298799,0.00477976,0.00161238,-0.00113063,-0.00181218,-0.00204923,0.00136976,0.04784848,0, 00:00:01.6
18,0.00165773,0.00619385,0.00112064,-0.00004653,0.00072440,-0.00032659,0.00004518,0.00137132,0.00369622,0.00391329,0.00325419,0.00921978,0.00812085,0.00313383,0.00059171,0.00119627,0.00022849,0.00163213,0.00108442,0.00233040,-0.00218977,0.01309643,0.01661724,0.00919509,0.00269849,0.00103986,0.00056124,0.00078305,0.00032169,0.00282222,0.00676813,0.01307693,0.00899085,0.01312720,0.00417418,0.00382371,0.00001977,0.00045000,0.00037662,0.00084431,0.08292468,0.00169354,0.00482191,0.01451221,0.01157093,0.00429880,0.00136066,-0.00104039,-0.00154671,-0.00172775,0.00119709,0.03670562,0, 00:00:01.7
19,0.00280409,0.00570464,0.00106010,-0.00036297,0.00057023,-0.00051985,0.00003526,0.00123659,0.00319939,0.00352312,0.00261935,0.00796875,0.00699821,0.00261632,0.00058005,0.00118397,0.00016847,0.00139655,0.00091957,0.00197615,-0.00209714,0.01136082,0.01429703,0.00807587,0.00242060,0.00093047,0.00051641,0.00056698,0.00031583,0.00249291,0.00594463,0.01148595,0.00794056,0.01144733,0.00358262,0.00337604,-0.00032416,0.00048303,0.00031043,0.00078378,0.08741851,0.00144183,0.00432742,0.01279171,0.01015080,0.00373955,0.00111663,-0.00094051,-0.00135147,-0.00146565,0.00107370,0.05583505,0, 00:00:01.8
20,0.00227834,0.00579476,0.00085179,-0.00016849,0.00044745,-0.00039793,-0.00000893,0.00108241,0.00274287,0.00307068,0.00168299,0.00688624,0.00603928,0.00224967,0.00052059,0.00125371,0.00021442,0.00117413,0.00082000,0.00179003,-0.00209690,0.00969630,0.01221779,0.00691034,0.00212587,0.00081788,0.00042347,0.00045582,0.00026075,0.00228889,0.00507930,0.00986012,0.00672342,0.00983126,0.00301839,0.00295606,-0.00008753,0.00048638,0.00030249,0.00075230,0.08989844,0.00120955,0.00377280,0.01090181,0.00878385,0.00318603,0.00092955,-0.00079257,-0.00113664,-0.00123771,0.00093068,0.05345323,0, 00:00:01.9
21,0.00179908,0.00473326,0.00067459,-0.00032761,0.00048957,-0.00034000,-0.00007936,0.00092207,0.00218961,0.00270106,0.00143245,0.00584103,0.00496746,0.00204463,0.00040391,0.00101634,0.00018744,0.00097821,0.00069101,0.00166441,-0.00197114,0.00803493,0.01001775,0.00577438,0.00174970,0.00066231,0.00033682,0.00036923,0.00023021,0.00183793,0.00405753,0.00823929,0.00546768,0.00825654,0.00254657,0.00250351,0.00026978,0.00038799,0.00024661,0.00065607,0.08697312,0.00096135,0.00318276,0.00950864,0.00744822,0.00263101,0.00083552,-0.00062646,-0.00092908,-0.00101301,0.00076284,0.04228861,0, 00:00:02.0
22,0.00096150,0.00383989,0.00077954,-0.00015854,0.00018660,-0.00019227,-0.00004938,0.00074697,0.00172029,0.00244615,0.00064766,0.00480840,0.00401618,0.00176664,0.00045014,0.00121678,0.00026348,0.00076394,0.00056851,0.00138995,-0.00175231,0.00636949,0.00817447,0.00464869,0.00144307,0.00051103,0.00026619,0.00031478,0.00020185,0.00166058,0.00313484,0.00658510,0.00443961,0.00673678,0.00204577,0.00201557,0.00027633,0.00028921,0.00019631,0.00052062,0.08053163,0.00063036,0.00256013,0.00797083,0.00610113,0.00214668,0.00063326,-0.00050398,-0.00076143,-0.00079190,0.00062862,0.05330022,0, 00:00:02.1
23,0.00067657,0.00314427,0.00047302,-0.00018450,0.00023019,-0.00007719,-0.00013509,0.00056311,0.00128623,0.00178981,0.00076861,0.00379721,0.00302177,0.00117734,0.00031744,0.00080299,0.00032699,0.00050793,0.00043739,0.00109077,-0.00138623,0.00493191,0.00645783,0.00367125,0.00107415,0.00036063,0.00019896,0.00017962,0.00014465,0.00128777,0.00235814,0.00500816,0.00335760,0.00525150,0.00153439,0.00159415,-0.00023759,0.00022440,0.00013293,0.00044545,0.08235491,0.00045110,0.00188438,0.00633124,0.00478686,0.00165078,0.00043785,-0.00041645,-0.00056092,-0.00055855,0.00049368,0.05630857,0, 00:00:02.2
24,0.00095783,0.00220099,0.00025806,-0.00027034,0.00016866,-0.00000756,-0.00024741,0.00039917,0.00098522,0.00102550,0.00116509,0.00250801,0.00236087,0.00078938,-0.00004146,0.00055977,0.00014457,0.00032830,0.00029440,0.00061091,-0.00087446,0.00350440,0.00447886,0.00264190,0.00075846,0.00021897,0.00013438,0.00013774,0.00004758,0.00096595,0.00156117,0.00343149,0.00231169,0.00377458,0.00104992,0.00103403,-0.00063923,0.00018630,0.00006325,0.00032280,0.07926105,0.00034107,0.00124162,0.00435084,0.00343673,0.00111516,0.00024602,-0.00030572,-0.00035417,-0.00035408,0.00031426,0.04267985,0, 00:00:02.3
25,0.00143135,0.00121433,0.00023361,-0.00026562,0.00006405,-0.00005069,-0.00018298,0.00017665,0.00056394,0.00050434,0.00022721,0.00141024,0.00145581,0.00053268,-0.00005799,0.00048106,-0.00008785,0.00020228,0.00015616,0.00030734,-0.00042874,0.00180613,0.00269182,0.00148631,0.00035550,0.00007228,0.00006771,0.00005425,0.00003072,0.00088158,0.00078946,0.00190164,0.00106360,0.00236164,0.00057478,0.00056479,-0.00039257,0.00011707,0.00001925,0.00017223,0.08669895,0.00015056,0.00063753,0.00228579,0.00210990,0.00057087,0.00009760,-0.00017881,-0.00018363,-0.00015202,0.00015109,0.04708125,0, 00:00:02.4
26,0.00027957,0.00031912,0.00004284,-0.00000623,0.00000608,0.00000780,-0.00001249,-0.00000022,0.00006028,0.00008263,0.00036693,0.00022124,0.00035575,-0.00000028,-0.00001888,0.00002922,-0.00000579,0.00000308,0.00000362,0.00007525,-0.00007766,0.00030681,0.00093434,0.00034404,-0.00001210,-0.00000209,-0.00000053,0.00000092,0.00000327,0.00005625,0.00010534,0.00041582,0.00017635,0.00098013,0.00008154,0.00005318,0.00002799,-0.00002513,0.00000058,0.00007286,0.08568861,0.00005671,0.00008152,0.00070023,0.00077963,0.00008012,0.00001042,-0.00000943,-0.00001798,0.00002235,0.00002263,0.05943249,0, 00:00:02.5
27,0.00176784,-0.00194923,0.00014468,-0.00010304,-0.00010837,-0.00003125,0.00008853,-0.00031437,-0.00065862,-0.00019614,-0.00104172,-0.00213371,-0.00191484,-0.00069539,-0.00034679,-0.00007558,-0.00021361,-0.00020374,-0.00034810,0.00013469,0.00024555,-0.00323000,-0.00347082,-0.00185201,-0.00043213,-0.00011644,-0.00005735,-0.00016769,-0.00001594,-0.00089260,-0.00074492,-0.00286782,-0.00173865,-0.00239427,-0.00088185,-0.00067497,-0.00007914,-0.00002636,-0.00004541,-0.00014601,0.07249845,-0.00024326,-0.00121594,-0.00246762,-0.00216144,-0.00088457,-0.00023270,0.00019528,0.00042118,0.00057690,-0.00011855,0.03360493,0, 00:00:02.6
28,0.00334959,-0.00429294,0.00105096,-0.00079042,-0.00004940,-0.00023567,-0.00004576,-0.00063953,-0.00131307,-0.00058349,-0.00324062,-0.00418197,-0.00437912,-0.00129362,-0.00008553,-0.00031867,-0.00010245,-0.00051012,-0.00062463,-0.00015911,0.00050640,-0.00658869,-0.00722115,-0.00415963,-0.00094074,-0.00018019,-0.00007997,-0.00021365,-0.00012774,-0.00200998,-0.00204511,-0.00617684,-0.00387463,-0.00566754,-0.00200176,-0.00137018,-0.00071200,-0.00000502,-0.00003532,-0.00033561,0.06668766,-0.00048166,-0.00225501,-0.00551784,-0.00504305,-0.00182447,-0.00042588,0.00035066,0.00075038,0.00108528,-0.00023010,0.03738163,0, 00:00:02.7
29,0.00259627,-0.00664574,0.00104284,-0.00078697,-0.00039535,-0.00039236,-0.00037650,-0.00091921,-0.00215995,-0.00105533,-0.00369406,-0.00629325,-0.00651703,-0.00193832,-0.00009810,-0.00045733,-0.00020073,-0.00079035,-0.00089556,-0.00024993,0.00047863,-0.00971820,-0.01139034,-0.00642877,-0.00155261,-0.00022273,-0.00007579,-0.00040656,-0.00017968,-0.00351058,-0.00321774,-0.00925806,-0.00611494,-0.00878222,-0.00300187,-0.00198452,-0.00065598,0.00018228,-0.00003536,-0.00038746,0.06015308,-0.00063636,-0.00326965,-0.00933747,-0.00795502,-0.00275805,-0.00065095,0.00050146,0.00106291,0.00154440,-0.00031314,0.06146241,0, 00:00:02.8
30,0.00085527,-0.00900269,0.00051721,-0.00096929,-0.00063197,-0.00057457,-0.00052579,-0.00126596,-0.00303859,-0.00141234,-0.00444798,-0.00828353,-0.00859688,-0.00230165,-0.00049711,-0.00015545,-0.00023546,-0.00099757,-0.00113426,-0.00048870,0.00030766,-0.01288141,-0.01574058,-0.00862815,-0.00206768,-0.00037900,-0.00014164,-0.00063582,-0.00030537,-0.00511626,-0.00442118,-0.01244708,-0.00773692,-0.01172977,-0.00401496,-0.00271963,-0.00000082,0.00010699,-0.00016060,-0.00066827,0.06391758,-0.00104091,-0.00414657,-0.01378117,-0.01081372,-0.00366104,-0.00087213,0.00071045,0.00130751,0.00197690,-0.00058587,0.03991570,0, 00:00:02.9
31,0.00174130,-0.01038455,0.00036954,-0.00137386,-0.00093557,-0.00053595,-0.00041952,-0.00171056,-0.00388089,-0.00220688,-0.00406512,-0.01047937,-0.01074347,-0.00270870,-0.00039147,-0.00045985,-0.00038603,-0.00133547,-0.00125184,-0.00072858,0.00053520,-0.01636955,-0.01973586,-0.01091373,-0.00246704,-0.00057904,-0.00017756,-0.00070632,-0.00044950,-0.00665535,-0.00591767,-0.01543800,-0.00909652,-0.01465435,-0.00502400,-0.00344824,0.00051114,-0.00004828,-0.00035901,-0.00128980,0.06858959,-0.00179327,-0.00499324,-0.01785698,-0.01371015,-0.00462032,-0.00105706,0.00094553,0.00153621,0.00230309,-0.00116412,0.03068485,0, 00:00:03.0
32,0.00053691,-0.01153073,0.00037341,-0.00144684,-0.00138085,-0.00063957,-0.00052354,-0.00212468,-0.00455230,-0.00312368,-0.00484853,-0.01252042,-0.01270854,-0.00330305,-0.00038100,-0.00039868,-0.00055582,-0.00174031,-0.00140392,-0.00109089,0.00066309,-0.01970716,-0.02374122,-0.01313291,-0.00296484,-0.00078480,-0.00025709,-0.00072765,-0.00052383,-0.00898522,-0.00750423,-0.01855643,-0.01083874,-0.01762108,-0.00604040,-0.00416622,0.00059300,-0.00023590,-0.00058844,-0.00231639,0.07895797,-0.00303717,-0.00583562,-0.02087618,-0.01653743,-0.00545897,-0.00132208,0.00115192,0.00173529,0.00247476,-0.00197694,0.05614892,0, 00:00:03.1
33,-0.00076199,-0.01338248,0.00013398,-0.00152146,-0.00129180,-0.00090800,-0.00049364,-0.00250621,-0.00531062,-0.00384343,-0.00555022,-0.01454197,-0.01497245,-0.00405619,-0.00048284,-0.00007030,-0.00051752,-0.00207010,-0.00156594,-0.00171336,0.00086901,-0.02276731,-0.02783270,-0.01508666,-0.00347442,-0.00101729,-0.00037064,-0.00100609,-0.00059498,-0.01076895,-0.00900075,-0.02161189,-0.01190847,-0.02059194,-0.00714646,-0.00477439,0.00010629,-0.00033212,-0.00088525,-0.00331839,0.08143117,-0.00408920,-0.00680750,-0.02416971,-0.01932094,-0.00625923,-0.00143026,0.00136197,0.00190882,0.00256671,-0.00276008,0.05439111,0, 00:00:03.2
34,-0.00099041,-0.01579731,-0.00015388,-0.00232550,-0.00124681,-0.00110877,-0.00057881,-0.00284918,-0.00617078,-0.00434169,-0.00594158,-0.01669241,-0.01693856,-0.00471106,-0.00076804,-0.00052699,-0.00054446,-0.00233170,-0.00167720,-0.00230567,0.00129650,-0.02577131,-0.03166711,-0.01703993,-0.00404707,-0.00117857,-0.00040857,-0.00116040,-0.00065262,-0.01235028,-0.01050948,-0.02450444,-0.01339748,-0.02354304,-0.00822478,-0.00534482,-0.00010445,-0.00025326,-0.00107597,-0.00424455,0.07285637,-0.00508122,-0.00781072,-0.02697475,-0.02205675,-0.00708369,-0.00162539,0.00151810,0.00213227,0.00259784,-0.00344824,0.03603709,0, 00:00:03.3
35,-0.00156142,-0.01755995,-0.00043801,-0.00273659,-0.00113003,-0.00134695,-0.00072044,-0.00311493,-0.00707062,-0.00505999,-0.00584942,-0.01858350,-0.01873729,-0.00532522,-0.00118198,-0.00085865,-0.00074489,-0.00256521,-0.00181243,-0.00307443,0.00140549,-0.02903076,-0.03500960,-0.01900526,-0.00453767,-0.00132935,-0.00050234,-0.00115336,-0.00070958,-0.01357307,-0.01206539,-0.02744322,-0.01514705,-0.02643622,-0.00918745,-0.00604421,0.00009735,-0.00022869,-0.00131348,-0.00498411,0.06588595,-0.00636626,-0.00889731,-0.02990792,-0.02470635,-0.00779670,-0.00179417,0.00168498,0.00227139,0.00260224,-0.00394451,0.06349924,0, 00:00:03.4
36,-0.00219514,-0.01958780,-0.00048880,-0.00298460,-0.00106278,-0.00156522,-0.00097038,-0.00336908,-0.00793592,-0.00585195,-0.00541956,-0.02049936,-0.02052648,-0.00580837,-0.00132708,-0.00075086,-0.00072803,-0.00279050,-0.00190958,-0.00392618,0.00122324,-0.03246144,-0.03831313,-0.02089012,-0.00507786,-0.00152598,-0.00059008,-0.00120300,-0.00081488,-0.01497690,-0.01357998,-0.03037590,-0.01689730,-0.02916268,-0.01014973,-0.00662377,0.00040865,-0.00031310,-0.00147229,-0.00560462,0.06096666,-0.00752828,-0.00967838,-0.03294946,-0.02725369,-0.00857163,-0.00191512,0.00185853,0.00234735,0.00257843,-0.00431083,0.06475039,0, 00:00:03.5
37,-0.00276142,-0.02062669,-0.00097821,-0.00328173,-0.00112563,-0.00192964,-0.00114309,-0.00376104,-0.00886356,-0.00680944,-0.00592468,-0.02270347,-0.02230152,-0.00622352,-0.00172607,-0.00156967,-0.00101360,-0.00300754,-0.00200641,-0.00492128,0.00098597,-0.03571903,-0.04154465,-0.02274979,-0.00574072,-0.00179240,-0.00063879,-0.00139208,-0.00091356,-0.01633251,-0.01524996,-0.03332090,-0.01880899,-0.03194563,-0.01107755,-0.00702704,0.00072922,-0.00051454,-0.00168485,-0.00623552,0.05873184,-0.00871956,-0.01056763,-0.03567079,-0.02976258,-0.00937691,-0.00205672,0.00200544,0.00237619,0.00254887,-0.00469256,0.03721632,0, 00:00:03.6
38,-0.00242504,-0.02199085,-0.00181298,-0.00346983,-0.00114636,-0.00202475,-0.00157880,-0.00414268,-0.00976015,-0.00796240,-0.00578842,-0.02489350,-0.02401547,-0.00672915,-0.00225375,-0.00249964,-0.00115142,-0.00325903,-0.00210866,-0.00588154,0.00109213,-0.03899089,-0.04498218,-0.02461986,-0.00620905,-0.00207133,-0.00065324,-0.00165271,-0.00092669,-0.01824357,-0.01679334,-0.03618823,-0.02043909,-0.03475441,-0.01199666,-0.00747125,0.00068229,-0.00065465,-0.00177976,-0.00683607,0.07342385,-0.00979196,-0.01138218,-0.03830537,-0.03225225,-0.01008564,-0.00208569,0.00212096,0.00241285,0.00248755,-0.00504616,0.05634586,0, 00:00:03.7
39,-0.00257727,-0.02368587,-0.00201253,-0.00353913,-0.00128397,-0.00206476,-0.00174346,-0.00446741,-0.01065847,-0.00879546,-0.00654564,-0.02687043,-0.02601902,-0.00744945,-0.00272226,-0.00275987,-0.00137693,-0.00352212,-0.00222435,-0.00670958,0.00099213,-0.04189155,-0.04854379,-0.02655010,-0.00683204,-0.00232558,-0.00067496,-0.00194397,-0.00090982,-0.01980627,-0.01801860,-0.03895065,-0.02235331,-0.03752058,-0.01294431,-0.00789529,0.00047740,-0.00067982,-0.00200013,-0.00740513,0.08055646,-0.01087212,-0.01215600,-0.04084502,-0.03472371,-0.01074971,-0.00225767,0.00223671,0.00250276,0.00237918,-0.00541834,0.06981741,0, 00:00:03.8
40,-0.00193830,-0.02524133,-0.00175347,-0.00390138,-0.00138612,-0.00212546,-0.00185520,-0.00475310,-0.01166520,-0.00972469,-0.00723056,-0.02866396,-0.02777148,-0.00821550,-0.00300105,-0.00344042,-0.00167475,-0.00384049,-0.00230157,-0.00775011,0.00127723,-0.04453857,-0.05177065,-0.02822260,-0.00738288,-0.00250092,-0.00074902,-0.00230784,-0.00101236,-0.02157616,-0.01911015,-0.04181295,-0.02409303,-0.04032968,-0.01386670,-0.00849352,0.00031301,-0.00066127,-0.00218533,-0.00790512,0.07912944,-0.01204798,-0.01286671,-0.04351525,-0.03715193,-0.01142883,-0.00243694,0.00236660,0.00258618,0.00222108,-0.00585305,0.04880137,0, 00:00:03.9
41,-0.00191953,-0.02756156,-0.00194752,-0.00440876,-0.00173981,-0.00219815,-0.00203214,-0.00502168,-0.01270801,-0.01081477,-0.00674340,-0.03037222,-0.02954758,-0.00874964,-0.00312014,-0.00390802,-0.00178617,-0.00407266,-0.00237511,-0.00883378,0.00108281,-0.04760358,-0.05523712,-0.02982851,-0.00800859,-0.00275385,-0.00084956,-0.00255600,-0.00111738,-0.02315937,-0.02028095,-0.04461446,-0.02591090,-0.04314478,-0.01471250,-0.00895739,0.00059487,-0.00068438,-0.00232416,-0.00839670,0.07320957,-0.01319069,-0.01367484,-0.04608441,-0.03954520,-0.01214805,-0.00256343,0.00252565,0.00266211,0.00203493,-0.00626019,0.05509208,0, 00:00:04.0
42,-0.00196245,-0.02957014,-0.00223529,-0.00516824,-0.00197072,-0.00219494,-0.00224212,-0.00525423,-0.01374763,-0.01183702,-0.00707055,-0.03202119,-0.03110022,-0.00945357,-0.00325298,-0.00400017,-0.00201462,-0.00435413,-0.00244438,-0.01017642,0.00129051,-0.05021527,-0.05833217,-0.03158208,-0.00860996,-0.00297986,-0.00092977,-0.00271039,-0.00125800,-0.02462161,-0.02150029,-0.04733535,-0.02758138,-0.04586219,-0.01554527,-0.00952885,0.00125852,-0.00083960,-0.00238980,-0.00895532,0.06389449,-0.01418218,-0.01428523,-0.04878628,-0.04185743,-0.01286018,-0.00269256,0.00269101,0.00272932,0.00186049,-0.00666338,0.08175360,0, 00:00:04.1
43,-0.00313468,-0.03170572,-0.00264511,-0.00549647,-0.00191303,-0.00224183,-0.00246649,-0.00557040,-0.01462909,-0.01247980,-0.00688692,-0.03379799,-0.03275562,-0.00987287,-0.00361709,-0.00409711,-0.00204199,-0.00459731,-0.00241496,-0.01122190,0.00128496,-0.05260263,-0.06131155,-0.03328251,-0.00911571,-0.00322057,-0.00098629,-0.00293330,-0.00137182,-0.02603626,-0.02279496,-0.04991883,-0.02937841,-0.04846673,-0.01632652,-0.01009968,0.00142481,-0.00104325,-0.00247188,-0.00962028,0.06049712,-0.01511527,-0.01495643,-0.05131616,-0.04407337,-0.01357610,-0.00275755,0.00283600,0.00277654,0.00171101,-0.00715817,0.05737330,0, 00:00:04.2
44,-0.00419148,-0.03376472,-0.00294380,-0.00558959,-0.00186951,-0.00205979,-0.00252245,-0.00588176,-0.01572286,-0.01354889,-0.00838131,-0.03544181,-0.03437569,-0.01032020,-0.00390916,-0.00461748,-0.00223039,-0.00478250,-0.00244971,-0.01256683,0.00129950,-0.05478244,-0.06440797,-0.03508843,-0.00961323,-0.00353182,-0.00101674,-0.00324494,-0.00146918,-0.02760299,-0.02403026,-0.05248580,-0.03087596,-0.05113997,-0.01706810,-0.01055184,0.00110825,-0.00109920,-0.00260376,-0.01034490,0.06172293,-0.01619797,-0.01541226,-0.05418234,-0.04625953,-0.01426660,-0.00300007,0.00286586,0.00283026,0.00151033,-0.00766359,0.04949373,0, 00:00:04.3
45,-0.00433591,-0.03589133,-0.00330199,-0.00566205,-0.00190665,-0.00228503,-0.00256970,-0.00626752,-0.01680836,-0.01465981,-0.00965687,-0.03719288,-0.03590702,-0.01086705,-0.00421403,-0.00446508,-0.00238600,-0.00507023,-0.00233702,-0.01395597,0.00144270,-0.05755332,-0.06755482,-0.03673877,-0.01007911,-0.00389339,-0.00104776,-0.00370322,-0.00165106,-0.02902484,-0.02545898,-0.05511017,-0.03253264,-0.05377419,-0.01788176,-0.01100490,0.00061930,-0.00115647,-0.00270783,-0.01107034,0.08309107,-0.01710208,-0.01610146,-0.05726920,-0.04841093,-0.01503997,-0.00318342,0.00293067,0.00285733,0.00130499,-0.00811453,0.07952623,0, 00:00:04.4
46,-0.00561495,-0.03789984,-0.00374792,-0.00568802,-0.00180918,-0.00229276,-0.00280053,-0.00657081,-0.01795344,-0.01547703,-0.00879631,-0.03888379,-0.03743015,-0.01171954,-0.00455994,-0.00441183,-0.00266734,-0.00547132,-0.00226756,-0.01542030,0.00171612,-0.06045270,-0.07093096,-0.03829630,-0.01068013,-0.00410846,-0.00112983,-0.00403860,-0.00180394,-0.03070000,-0.02667478,-0.05764442,-0.03432503,-0.05642630,-0.01867035,-0.01136761,0.00080006,-0.00124185,-0.00286228,-0.01171109,0.08874033,-0.01794489,-0.01668615,-0.05912242,-0.05069160,-0.01577590,-0.00334204,0.00304969,0.00290189,0.00105515,-0.00859968,0.06554838,0, 00:00:04.5
47,-0.00671976,-0.03921382,-0.00381918,-0.00626407,-0.00198621,-0.00248151,-0.00274877,-0.00677309,-0.01900299,-0.01620221,-0.00777380,-0.04035902,-0.03886750,-0.01238297,-0.00484915,-0.00508331,-0.00301891,-0.00579529,-0.00226205,-0.01706484,0.00174168,-0.06264744,-0.07389987,-0.03988703,-0.01123050,-0.00426012,-0.00121994,-0.00427052,-0.00194956,-0.03246630,-0.02762081,-0.06008920,-0.03622118,-0.05906815,-0.01945904,-0.01182871,0.00157335,-0.00135999,-0.00294456,-0.01229793,0.08638119,-0.01906284,-0.01724248,-0.06182549,-0.05285691,-0.01646704,-0.00346740,0.00320407,0.00292145,0.00074498,-0.00910679,0.05442448,0, 00:00:04.6
48,-0.00611628,-0.04045418,-0.00390588,-0.00629193,-0.00202043,-0.00270470,-0.00294685,-0.00698057,-0.02021348,-0.01709813,-0.00830045,-0.04183070,-0.04019195,-0.01280804,-0.00528025,-0.00495119,-0.00328411,-0.00599728,-0.00224153,-0.01877839,0.00163224,-0.06506631,-0.07707372,-0.04138522,-0.01171064,-0.00443878,-0.00126943,-0.00451679,-0.00199199,-0.03403909,-0.02882733,-0.06246777,-0.03781059,-0.06163337,-0.02021760,-0.01221115,0.00185601,-0.00152171,-0.00308622,-0.01286620,0.08048224,-0.02009979,-0.01782042,-0.06474735,-0.05491850,-0.01717103,-0.00356899,0.00328081,0.00286430,0.00041622,-0.00956949,0.08150098,0, 00:00:04.7
49,-0.00478534,-0.04197460,-0.00455856,-0.00729339,-0.00198054,-0.00273146,-0.00321363,-0.00725263,-0.02123767,-0.01808056,-0.00653160,-0.04330302,-0.04153049,-0.01341027,-0.00560504,-0.00546300,-0.00368451,-0.00624468,-0.00219264,-0.02019180,0.00181481,-0.06708555,-0.07978383,-0.04271659,-0.01224111,-0.00466993,-0.00127905,-0.00478503,-0.00206351,-0.03560815,-0.02984047,-0.06474885,-0.03945029,-0.06413714,-0.02091976,-0.01259343,0.00148402,-0.00153825,-0.00319871,-0.01339968,0.06940194,-0.02100628,-0.01827931,-0.06725176,-0.05698297,-0.01789514,-0.00382691,0.00329565,0.00282146,0.00004184,-0.01004993,0.08159839,0, 00:00:04.8
50,-0.00587132,-0.04254164,-0.00463112,-0.00751606,-0.00215331,-0.00264714,-0.00347566,-0.00749811,-0.02221086,-0.01904042,-0.00701633,-0.04497863,-0.04303473,-0.01379195,-0.00599203,-0.00581931,-0.00379396,-0.00640397,-0.00213750,-0.02163358,0.00180091,-0.06946737,-0.08264035,-0.04421424,-0.01265435,-0.00492893,-0.00129556,-0.00502530,-0.00213519,-0.03789542,-0.03104550,-0.06701709,-0.04070274,-0.06659488,-0.02159240,-0.01298461,0.00095057,-0.00146937,-0.00323722,-0.01397842,0.06097918,-0.02178762,-0.01867245,-0.06944090,-0.05909009,-0.01858392,-0.00398179,0.00329141,0.00273275,-0.00029828,-0.01058482,0.05342241,0, 00:00:04.9
51,-0.00476729,-0.04273576,-0.00551538,-0.00717764,-0.00246642,-0.00259474,-0.00356432,-0.00779247,-0.02321585,-0.01987077,-0.00746294,-0.04662374,-0.04437091,-0.01427667,-0.00626400,-0.00579028,-0.00418962,-0.00660206,-0.00205874,-0.02316420,0.00181042,-0.07136965,-0.08524223,-0.04567254,-0.01309804,-0.00521730,-0.00132454,-0.00515440,-0.00218284,-0.03946375,-0.03215338,-0.06932435,-0.04214456,-0.06905548,-0.02221354,-0.01333475,0.00107886,-0.00148249,-0.00334436,-0.01455735,0.07083047,-0.02255070,-0.01916941,-0.07153224,-0.06117422,-0.01925908,-0.00410570,0.00333347,0.00259342,-0.00064205,-0.01108286,0.07431194,1, 00:00:05.0
52,-0.00353042,-0.04384034,-0.00628538,-0.00736151,-0.00251733,-0.00267945,-0.00371649,-0.00805990,-0.02425769,-0.02073970,-0.00720259,-0.04809207,-0.04590036,-0.01487679,-0.00655870,-0.00610692,-0.00425453,-0.00675077,-0.00203326,-0.02483376,0.00187484,-0.07362568,-0.08783250,-0.04716148,-0.01359041,-0.00548181,-0.00139771,-0.00537874,-0.00216461,-0.04145680,-0.03315238,-0.07169151,-0.04371722,-0.07145542,-0.02285875,-0.01374572,0.00187849,-0.00161454,-0.00341664,-0.01511740,0.08446181,-0.02330105,-0.01950616,-0.07381491,-0.06319281,-0.01993724,-0.00416947,0.00346109,0.00255035,-0.00102039,-0.01156534,0.08571642,0, 00:00:05.1
53,-0.00402512,-0.04537733,-0.00743536,-0.00767825,-0.00261704,-0.00239900,-0.00391171,-0.00830900,-0.02544012,-0.02194210,-0.00665751,-0.04957998,-0.04735063,-0.01560424,-0.00719844,-0.00630079,-0.00464391,-0.00706016,-0.00194201,-0.02639528,0.00179269,-0.07582934,-0.09007021,-0.04848938,-0.01413332,-0.00577674,-0.00147963,-0.00557725,-0.00223048,-0.04303295,-0.03416561,-0.07392824,-0.04532541,-0.07382022,-0.02364546,-0.01413163,0.00219309,-0.00178574,-0.00342245,-0.01561826,0.08811218,-0.02400129,-0.02000770,-0.07660491,-0.06507972,-0.02056527,-0.00425872,0.00354580,0.00251867,-0.00141370,-0.01210621,0.05855785,0, 00:00:05.2
54,-0.00348117,-0.04618310,-0.00789930,-0.00809585,-0.00237879,-0.00244002,-0.00411221,-0.00862059,-0.02652414,-0.02274076,-0.00670877,-0.05099866,-0.04857497,-0.01605505,-0.00747785,-0.00662722,-0.00471045,-0.00720253,-0.00182825,-0.02807849,0.00165225,-0.07824701,-0.09316944,-0.04988082,-0.01464122,-0.00605147,-0.00152862,-0.00583999,-0.00238416,-0.04420834,-0.03531849,-0.07600662,-0.04702530,-0.07613108,-0.02431950,-0.01454385,0.00182521,-0.00194269,-0.00348916,-0.01615429,0.08686028,-0.02472536,-0.02060717,-0.07906204,-0.06692757,-0.02121991,-0.00449015,0.00359020,0.00246604,-0.00183535,-0.01260558,0.07488073,0, 00:00:05.3
55,-0.00247389,-0.04694694,-0.00808868,-0.00849435,-0.00257161,-0.00279045,-0.00426770,-0.00885636,-0.02761444,-0.02336295,-0.00760484,-0.05220501,-0.04970162,-0.01671437,-0.00763995,-0.00676324,-0.00509580,-0.00741324,-0.00172327,-0.02967579,0.00128362,-0.08052670,-0.09629042,-0.05119243,-0.01518535,-0.00629444,-0.00155462,-0.00599939,-0.00248812,-0.04556363,-0.03639992,-0.07799190,-0.04896193,-0.07838259,-0.02500810,-0.01481054,0.00127537,-0.00199877,-0.00350695,-0.01667045,0.07843567,-0.02552434,-0.02110079,-0.08105740,-0.06875941,-0.02181865,-0.00456223,0.00361101,0.00240575,-0.00228229,-0.01307816,0.09487116,0, 00:00:05.4
56,-0.00170488,-0.04861666,-0.00847036,-0.00853872,-0.00271048,-0.00277076,-0.00455837,-0.00911308,-0.02875767,-0.02438643,-0.00905333,-0.05370742,-0.05095509,-0.01703412,-0.00788203,-0.00693883,-0.00509865,-0.00753399,-0.00157615,-0.03109195,0.00141237,-0.08302788,-0.09876154,-0.05252085,-0.01558741,-0.00657200,-0.00162617,-0.00639226,-0.00259111,-0.04695249,-0.03754170,-0.07999700,-0.05012598,-0.08052907,-0.02562195,-0.01525739,0.00128805,-0.00198325,-0.00361931,-0.01726056,0.07195117,-0.02638869,-0.02160667,-0.08305217,-0.07055891,-0.02238259,-0.00468925,0.00363374,0.00233747,-0.00273142,-0.01361294,0.07092640,0, 00:00:05.5
57,-0.00229511,-0.04924035,-0.00849485,-0.00866954,-0.00300722,-0.00296331,-0.00466185,-0.00932884,-0.02990471,-0.02531909,-0.00969730,-0.05538713,-0.05218083,-0.01721264,-0.00800279,-0.00720283,-0.00511499,-0.00769796,-0.00141729,-0.03280986,0.00104934,-0.08505145,-0.10138871,-0.05383484,-0.01598161,-0.00684356,-0.00167395,-0.00648812,-0.00270830,-0.04840937,-0.03843710,-0.08194646,-0.05131646,-0.08265533,-0.02615393,-0.01562305,0.00181118,-0.00205499,-0.00375631,-0.01790252,0.06324799,-0.02721060,-0.02198767,-0.08496509,-0.07236984,-0.02301859,-0.00476693,0.00372984,0.00225998,-0.00316520,-0.01412923,0.06624565,0, 00:00:05.6
58,-0.00230796,-0.05024011,-0.00831131,-0.00893774,-0.00313012,-0.00299460,-0.00470695,-0.00953962,-0.03104325,-0.02621360,-0.01076296,-0.05695214,-0.05331718,-0.01755618,-0.00823147,-0.00726390,-0.00521054,-0.00797986,-0.00130388,-0.03455976,0.00109287,-0.08714006,-0.10343713,-0.05515141,-0.01652610,-0.00706033,-0.00171397,-0.00667577,-0.00285821,-0.05040903,-0.03941743,-0.08382238,-0.05273624,-0.08476859,-0.02675211,-0.01595571,0.00210751,-0.00231205,-0.00385845,-0.01857950,0.08215246,-0.02806451,-0.02245468,-0.08650796,-0.07406409,-0.02361946,-0.00485171,0.00380138,0.00220566,-0.00352476,-0.01461149,0.09256265,0, 00:00:05.7
59,-0.00156023,-0.05145709,-0.00883296,-0.00955330,-0.00306832,-0.00300558,-0.00488627,-0.00985761,-0.03220776,-0.02708063,-0.01353394,-0.05850707,-0.05441119,-0.01800225,-0.00871943,-0.00743856,-0.00540789,-0.00823861,-0.00111824,-0.03628521,0.00113130,-0.08896422,-0.10590827,-0.05651636,-0.01697448,-0.00733076,-0.00175547,-0.00687230,-0.00302350,-0.05260549,-0.04031475,-0.08584101,-0.05406802,-0.08681297,-0.02729461,-0.01641478,0.00196473,-0.00249002,-0.00405697,-0.01928720,0.09088512,-0.02882796,-0.02290538,-0.08831748,-0.07571410,-0.02425515,-0.00502605,0.00385165,0.00218746,-0.00394721,-0.01513714,0.07630248,0, 00:00:05.8
60,-0.00198676,-0.05302837,-0.00899594,-0.01029153,-0.00306380,-0.00305145,-0.00501501,-0.01012754,-0.03334557,-0.02791725,-0.01384468,-0.05985151,-0.05571575,-0.01850567,-0.00925486,-0.00762519,-0.00569284,-0.00835672,-0.00098126,-0.03802251,0.00093295,-0.09068526,-0.10835842,-0.05779140,-0.01746414,-0.00752001,-0.00177556,-0.00710748,-0.00316601,-0.05496121,-0.04125709,-0.08775957,-0.05517321,-0.08892458,-0.02788020,-0.01683426,0.00157998,-0.00250518,-0.00422037,-0.02006382,0.09282923,-0.02953504,-0.02329632,-0.09026986,-0.07736286,-0.02493458,-0.00513470,0.00385792,0.00208482,-0.00458341,-0.01564097,0.06431605,0, 00:00:05.9
61,-0.00311320,-0.05436011,-0.00914788,-0.01104943,-0.00341797,-0.00311223,-0.00522523,-0.01037796,-0.03443233,-0.02897998,-0.01456094,-0.06109954,-0.05681346,-0.01899849,-0.00979121,-0.00776530,-0.00596548,-0.00854067,-0.00080792,-0.03974526,0.00055119,-0.09212166,-0.11081590,-0.05891681,-0.01783269,-0.00772413,-0.00175587,-0.00730643,-0.00323766,-0.05627781,-0.04192127,-0.08959834,-0.05672371,-0.09098163,-0.02839605,-0.01724996,0.00154320,-0.00244039,-0.00441430,-0.02082737,0.09203996,-0.03033603,-0.02379610,-0.09296381,-0.07898301,-0.02548040,-0.00530007,0.00382108,0.00194401,-0.00519093,-0.01607456,0.09869011,0, 00:00:06.0
62,-0.00229178,-0.05520087,-0.00969529,-0.01182664,-0.00335280,-0.00323664,-0.00548983,-0.01057964,-0.03554858,-0.02979704,-0.01643988,-0.06219497,-0.05761345,-0.01946644,-0.01011270,-0.00761976,-0.00600051,-0.00871271,-0.00060822,-0.04159631,-0.00004307,-0.09398512,-0.11330462,-0.05982795,-0.01812582,-0.00785025,-0.00178192,-0.00751046,-0.00326963,-0.05792104,-0.04271506,-0.09142804,-0.05827615,-0.09294862,-0.02891967,-0.01759097,0.00179903,-0.00240756,-0.00447599,-0.02158199,0.07989080,-0.03121708,-0.02444697,-0.09519722,-0.08056007,-0.02592554,-0.00536714,0.00386404,0.00185184,-0.00581505,-0.01654090,0.09004037,0, 00:00:06.1
63,-0.00273988,-0.05582529,-0.01025706,-0.01232218,-0.00337926,-0.00343985,-0.00577332,-0.01076165,-0.03657507,-0.03072595,-0.01664590,-0.06326126,-0.05851156,-0.01956623,-0.01028668,-0.00704263,-0.00608786,-0.00869619,-0.00044029,-0.04332089,-0.00065498,-0.09620706,-0.11543215,-0.06082029,-0.01854248,-0.00803601,-0.00182998,-0.00787145,-0.00334076,-0.05934987,-0.04370017,-0.09325811,-0.05952149,-0.09492388,-0.02939232,-0.01777700,0.00209709,-0.00252320,-0.00462294,-0.02245637,0.07267255,-0.03210978,-0.02496807,-0.09695899,-0.08214481,-0.02641467,-0.00540285,0.00390832,0.00170062,-0.00644708,-0.01708791,0.06772533,0, 00:00:06.2
64,-0.00271988,-0.05654535,-0.00999350,-0.01261252,-0.00370582,-0.00363988,-0.00599937,-0.01096817,-0.03767361,-0.03167679,-0.01675403,-0.06451899,-0.05941699,-0.01979503,-0.01046800,-0.00732869,-0.00626272,-0.00874024,-0.00031862,-0.04529428,-0.00154487,-0.09822731,-0.11770128,-0.06191381,-0.01895225,-0.00825497,-0.00183804,-0.00811295,-0.00337487,-0.06097710,-0.04431543,-0.09504087,-0.06085283,-0.09683543,-0.02992569,-0.01799043,0.00246105,-0.00271504,-0.00466379,-0.02336926,0.06970284,-0.03298933,-0.02531819,-0.09862247,-0.08362070,-0.02686520,-0.00544026,0.00393271,0.00151893,-0.00710533,-0.01757453,0.08893666,0, 00:00:06.3
65,-0.00288211,-0.05858458,-0.00990680,-0.01340669,-0.00406208,-0.00368276,-0.00635294,-0.01117109,-0.03879527,-0.03258237,-0.01812894,-0.06585834,-0.06044248,-0.02013321,-0.01076040,-0.00769046,-0.00613650,-0.00880165,-0.00023127,-0.04712215,-0.00168496,-0.10041761,-0.11959317,-0.06304721,-0.01940543,-0.00851575,-0.00182742,-0.00846627,-0.00352870,-0.06244785,-0.04490926,-0.09697673,-0.06221552,-0.09871686,-0.03045339,-0.01832801,0.00224674,-0.00283540,-0.00478942,-0.02428418,0.08381314,-0.03379507,-0.02565786,-0.10043207,-0.08511093,-0.02731789,-0.00539808,0.00389858,0.00138821,-0.00777073,-0.01806545,0.09383032,0, 00:00:06.4
66,-0.00312459,-0.05979414,-0.01045068,-0.01389370,-0.00418425,-0.00357672,-0.00670400,-0.01133400,-0.03974061,-0.03356915,-0.01844181,-0.06707799,-0.06148972,-0.02030772,-0.01104917,-0.00816482,-0.00622236,-0.00879189,-0.00006416,-0.04867964,-0.00206928,-0.10269839,-0.12174156,-0.06416899,-0.01978890,-0.00882659,-0.00180417,-0.00870013,-0.00368827,-0.06344076,-0.04553419,-0.09885421,-0.06351888,-0.10065360,-0.03093119,-0.01872730,0.00196082,-0.00282634,-0.00478109,-0.02518689,0.09275372,-0.03461067,-0.02595848,-0.10229222,-0.08658230,-0.02773865,-0.00552764,0.00379598,0.00122194,-0.00842726,-0.01861457,0.06800855,0, 00:00:06.5
67,-0.00214874,-0.06059105,-0.01062966,-0.01449047,-0.00464235,-0.00339569,-0.00693892,-0.01150764,-0.04072476,-0.03465039,-0.01812369,-0.06842899,-0.06239067,-0.02054797,-0.01145270,-0.00871673,-0.00656973,-0.00877018,0.00010378,-0.05049409,-0.00221167,-0.10472589,-0.12369610,-0.06518391,-0.02022425,-0.00905980,-0.00175138,-0.00892987,-0.00373885,-0.06481315,-0.04590099,-0.10054135,-0.06453363,-0.10255276,-0.03135542,-0.01892711,0.00180124,-0.00278429,-0.00480350,-0.02606586,0.09553955,-0.03558340,-0.02615718,-0.10408705,-0.08798971,-0.02817173,-0.00554314,0.00371570,0.00100150,-0.00914277,-0.01909262,0.08493544,0, 00:00:06.6
68,-0.00109356,-0.06247940,-0.01102075,-0.01478419,-0.00506412,-0.00312535,-0.00710214,-0.01167825,-0.04165563,-0.03557456,-0.01777440,-0.06936697,-0.06342600,-0.02095514,-0.01183569,-0.00872106,-0.00673250,-0.00889774,0.00030870,-0.05222888,-0.00208531,-0.10653368,-0.12532388,-0.06619880,-0.02076397,-0.00923422,-0.00174980,-0.00928250,-0.00383810,-0.06634063,-0.04652549,-0.10223723,-0.06611013,-0.10441686,-0.03185283,-0.01913239,0.00215397,-0.00285955,-0.00487208,-0.02682506,0.09357311,-0.03652635,-0.02640434,-0.10533194,-0.08940871,-0.02861516,-0.00551250,0.00366892,0.00079919,-0.00987437,-0.01951838,0.10691613,0, 00:00:06.7
69,-0.00169078,-0.06431867,-0.01118447,-0.01455334,-0.00516852,-0.00296256,-0.00745014,-0.01177038,-0.04264887,-0.03661002,-0.01859709,-0.07021953,-0.06429879,-0.02099770,-0.01204210,-0.00927652,-0.00692049,-0.00884318,0.00050356,-0.05380829,-0.00228210,-0.10844364,-0.12688304,-0.06719711,-0.02125185,-0.00945225,-0.00177760,-0.00966334,-0.00396532,-0.06768324,-0.04725016,-0.10387330,-0.06788185,-0.10622151,-0.03228071,-0.01943449,0.00269543,-0.00309070,-0.00492369,-0.02762070,0.08394240,-0.03731941,-0.02671196,-0.10710005,-0.09081227,-0.02901227,-0.00545149,0.00360827,0.00063570,-0.01057986,-0.02003804,0.07641298,0, 00:00:06.8
70,-0.00131124,-0.06619296,-0.01083777,-0.01505318,-0.00516753,-0.00304987,-0.00767260,-0.01184424,-0.04363258,-0.03745348,-0.01866493,-0.07141161,-0.06524123,-0.02102720,-0.01243708,-0.00983512,-0.00719646,-0.00877457,0.00061423,-0.05555522,-0.00216854,-0.10996553,-0.12865278,-0.06819230,-0.02177168,-0.00964396,-0.00174064,-0.00990218,-0.00394430,-0.06913058,-0.04779894,-0.10558761,-0.06951327,-0.10801578,-0.03272099,-0.01975493,0.00268376,-0.00330261,-0.00498030,-0.02850077,0.07483120,-0.03825205,-0.02700540,-0.10878240,-0.09223005,-0.02939524,-0.00539493,0.00349824,0.00040116,-0.01126593,-0.02054310,0.08042331,0, 00:00:06.9
71,-0.00158085,-0.06679738,-0.01096695,-0.01548491,-0.00542878,-0.00316345,-0.00796080,-0.01192561,-0.04451877,-0.03836279,-0.01938592,-0.07269077,-0.06601832,-0.02114703,-0.01282123,-0.01001414,-0.00735626,-0.00869481,0.00075421,-0.05732143,-0.00238673,-0.11177438,-0.13030975,-0.06909809,-0.02213393,-0.00985043,-0.00168504,-0.01019013,-0.00396510,-0.07044415,-0.04809543,-0.10718130,-0.07108183,-0.10976230,-0.03319290,-0.01997254,0.00224194,-0.00334684,-0.00494882,-0.02937235,0.07875206,-0.03919321,-0.02724872,-0.11085425,-0.09356461,-0.02973646,-0.00550802,0.00331844,0.00015253,-0.01192975,-0.02100808,0.10200570,0, 00:00:07.0
72,-0.00044474,-0.06742554,-0.01164756,-0.01601417,-0.00546300,-0.00351852,-0.00818408,-0.01202141,-0.04539723,-0.03937056,-0.01934907,-0.07403065,-0.06699638,-0.02118339,-0.01341564,-0.01017740,-0.00769239,-0.00859388,0.00092552,-0.05880994,-0.00269313,-0.11339347,-0.13217381,-0.07007297,-0.02260770,-0.01003598,-0.00164615,-0.01049461,-0.00402789,-0.07173415,-0.04861834,-0.10868913,-0.07268292,-0.11147341,-0.03362189,-0.02015809,0.00180715,-0.00339784,-0.00496349,-0.03024831,0.08510812,-0.03992058,-0.02737327,-0.11306511,-0.09490261,-0.03007653,-0.00551893,0.00314259,-0.00005751,-0.01260311,-0.02152054,0.08059561,0, 00:00:07.1
73,-0.00082781,-0.06826244,-0.01193636,-0.01646006,-0.00560292,-0.00366074,-0.00838146,-0.01217425,-0.04628887,-0.03987500,-0.02068891,-0.07543914,-0.06793457,-0.02098946,-0.01358556,-0.01007878,-0.00796922,-0.00852041,0.00115923,-0.06034671,-0.00268416,-0.11526699,-0.13394243,-0.07124622,-0.02311161,-0.01024797,-0.00161637,-0.01063747,-0.00408735,-0.07330944,-0.04935245,-0.11036864,-0.07439388,-0.11316831,-0.03403722,-0.02041252,0.00210343,-0.00349050,-0.00497198,-0.03123107,0.09553599,-0.04082630,-0.02743741,-0.11486823,-0.09620751,-0.03042092,-0.00549971,0.00301183,-0.00027662,-0.01331060,-0.02203421,0.07383429,0, 00:00:07.2
74,-0.00102367,-0.06811033,-0.01190976,-0.01686239,-0.00575242,-0.00360723,-0.00849964,-0.01231124,-0.04735366,-0.04055823,-0.02303320,-0.07648321,-0.06912731,-0.02132459,-0.01340034,-0.01018710,-0.00793843,-0.00857456,0.00141438,-0.06171862,-0.00292497,-0.11716466,-0.13555463,-0.07214684,-0.02361819,-0.01046760,-0.00161604,-0.01096738,-0.00411704,-0.07435415,-0.04974018,-0.11202271,-0.07586407,-0.11488929,-0.03452849,-0.02052925,0.00284493,-0.00369338,-0.00491446,-0.03208210,0.09666726,-0.04185837,-0.02743708,-0.11557479,-0.09744515,-0.03065678,-0.00539276,0.00292814,-0.00046570,-0.01401318,-0.02245918,0.10371086,0, 00:00:07.3
75,-0.00144905,-0.06911867,-0.01206572,-0.01728214,-0.00599555,-0.00378686,-0.00881511,-0.01232208,-0.04823890,-0.04127792,-0.02271650,-0.07742475,-0.06994127,-0.02182839,-0.01368075,-0.01050046,-0.00786147,-0.00866010,0.00161605,-0.06323214,-0.00305245,-0.11877687,-0.13736001,-0.07282034,-0.02400138,-0.01061809,-0.00165017,-0.01131779,-0.00420419,-0.07603955,-0.05006572,-0.11360035,-0.07700037,-0.11661694,-0.03504214,-0.02074555,0.00292183,-0.00385862,-0.00489157,-0.03277098,0.08897963,-0.04278133,-0.02750527,-0.11602087,-0.09861282,-0.03092768,-0.00533559,0.00285615,-0.00060146,-0.01474049,-0.02290566,0.09573948,0, 00:00:07.4
76,-0.00063440,-0.07086730,-0.01236954,-0.01807195,-0.00623713,-0.00393324,-0.00927280,-0.01233669,-0.04898456,-0.04224535,-0.02367429,-0.07825834,-0.07080472,-0.02176080,-0.01416122,-0.01029937,-0.00824810,-0.00851934,0.00183251,-0.06469765,-0.00326916,-0.12071244,-0.13893741,-0.07347636,-0.02442717,-0.01086237,-0.00166732,-0.01165819,-0.00425767,-0.07687207,-0.05062981,-0.11514919,-0.07887560,-0.11827362,-0.03547630,-0.02088865,0.00237731,-0.00387369,-0.00492849,-0.03352670,0.08092980,-0.04373523,-0.02760530,-0.11741858,-0.09978995,-0.03127207,-0.00544612,0.00266217,-0.00078055,-0.01542410,-0.02341427,0.07206365,0, 00:00:07.5
77,-0.00166473,-0.07149944,-0.01304412,-0.01857416,-0.00680060,-0.00413253,-0.00961168,-0.01236269,-0.04982167,-0.04339640,-0.02353532,-0.07920317,-0.07171419,-0.02171892,-0.01439568,-0.01057845,-0.00837897,-0.00841635,0.00197528,-0.06596704,-0.00297031,-0.12250696,-0.14007798,-0.07421663,-0.02493189,-0.01105935,-0.00164108,-0.01196662,-0.00429396,-0.07785068,-0.05111116,-0.11665776,-0.08063256,-0.11992204,-0.03589061,-0.02110360,0.00178215,-0.00391788,-0.00490770,-0.03433570,0.07472233,-0.04466216,-0.02757723,-0.11891058,-0.10088837,-0.03152425,-0.00541794,0.00247039,-0.00101681,-0.01614125,-0.02386948,0.09922998,0, 00:00:07.6
78,-0.00226344,-0.07212293,-0.01386218,-0.01844360,-0.00727550,-0.00441120,-0.00987024,-0.01243533,-0.05076248,-0.04416941,-0.02240105,-0.08040741,-0.07240039,-0.02173985,-0.01497716,-0.01063448,-0.00838118,-0.00830825,0.00212287,-0.06725483,-0.00283047,-0.12422118,-0.14159203,-0.07487957,-0.02540712,-0.01126395,-0.00165509,-0.01215787,-0.00434077,-0.07913575,-0.05138551,-0.11817395,-0.08212280,-0.12147942,-0.03630114,-0.02130890,0.00207696,-0.00398921,-0.00480573,-0.03514297,0.07956441,-0.04543581,-0.02766078,-0.12060806,-0.10197673,-0.03176876,-0.00537734,0.00233185,-0.00118607,-0.01679976,-0.02434209,0.09580881,0, 00:00:07.7
79,-0.00240714,-0.07260223,-0.01410974,-0.01813160,-0.00747958,-0.00446082,-0.00997660,-0.01252806,-0.05158119,-0.04497134,-0.02255945,-0.08177677,-0.07297412,-0.02157448,-0.01536476,-0.01093740,-0.00849255,-0.00815112,0.00227393,-0.06867181,-0.00254731,-0.12610027,-0.14291050,-0.07569005,-0.02577534,-0.01148184,-0.00165142,-0.01252382,-0.00433699,-0.08052837,-0.05180327,-0.11974459,-0.08371357,-0.12302659,-0.03665459,-0.02155210,0.00273298,-0.00416593,-0.00474450,-0.03599852,0.08728057,-0.04626995,-0.02766771,-0.12183923,-0.10297086,-0.03195482,-0.00526263,0.00220555,-0.00134743,-0.01732012,-0.02485081,0.06923154,0, 00:00:07.8
80,-0.00109723,-0.07239023,-0.01429876,-0.01827538,-0.00740442,-0.00444707,-0.01020246,-0.01256559,-0.05246190,-0.04591454,-0.02280515,-0.08307572,-0.07376233,-0.02139093,-0.01576668,-0.01139101,-0.00861207,-0.00802073,0.00244966,-0.07001910,-0.00258808,-0.12764722,-0.14416626,-0.07651162,-0.02620423,-0.01177266,-0.00163263,-0.01274497,-0.00439902,-0.08182169,-0.05221378,-0.12117145,-0.08576065,-0.12462312,-0.03695598,-0.02167471,0.00282457,-0.00441014,-0.00466111,-0.03679801,0.09809144,-0.04707957,-0.02766961,-0.12236466,-0.10391587,-0.03215794,-0.00515268,0.00204858,-0.00148045,-0.01784891,-0.02522345,0.09190772,0, 00:00:07.9
81,-0.00266633,-0.07280726,-0.01451339,-0.01870027,-0.00767036,-0.00465854,-0.01048451,-0.01257921,-0.05325816,-0.04668035,-0.02407639,-0.08421154,-0.07458332,-0.02185600,-0.01629248,-0.01120883,-0.00873707,-0.00800457,0.00259187,-0.07133763,-0.00262726,-0.12931041,-0.14572504,-0.07726817,-0.02678095,-0.01205340,-0.00164563,-0.01293820,-0.00445117,-0.08257031,-0.05240298,-0.12249680,-0.08776091,-0.12617321,-0.03737100,-0.02183759,0.00233925,-0.00463247,-0.00457137,-0.03735454,0.09674600,-0.04755626,-0.02768475,-0.12288438,-0.10472062,-0.03233562,-0.00514425,0.00187101,-0.00156489,-0.01841070,-0.02553792,0.10532769,0, 00:00:08.0
82,-0.00225775,-0.07380272,-0.01471630,-0.01879674,-0.00767950,-0.00487096,-0.01074050,-0.01247535,-0.05401568,-0.04702046,-0.02306744,-0.08508082,-0.07522793,-0.02219166,-0.01657999,-0.01162364,-0.00901939,-0.00796262,0.00278885,-0.07270829,-0.00241548,-0.13069007,-0.14659223,-0.07776783,-0.02738881,-0.01218688,-0.00168377,-0.01321399,-0.00454423,-0.08320592,-0.05248665,-0.12379880,-0.08979020,-0.12762886,-0.03775278,-0.02208196,0.00165614,-0.00472420,-0.00438323,-0.03778223,0.08882889,-0.04791010,-0.02780845,-0.12394801,-0.10552905,-0.03257556,-0.00505408,0.00170714,-0.00151783,-0.01889582,-0.02591373,0.07909651,0, 00:00:08.1
83,-0.00080383,-0.07400250,-0.01492820,-0.01912790,-0.00784393,-0.00498138,-0.01100989,-0.01245654,-0.05476646,-0.04786182,-0.02370437,-0.08603819,-0.07581072,-0.02195839,-0.01674378,-0.01232139,-0.00942335,-0.00786413,0.00302240,-0.07393783,-0.00236741,-0.13240682,-0.14751697,-0.07832362,-0.02779935,-0.01239200,-0.00172902,-0.01343132,-0.00458392,-0.08431358,-0.05250793,-0.12505713,-0.09209174,-0.12901315,-0.03807744,-0.02234060,0.00176393,-0.00483626,-0.00418550,-0.03836196,0.07998812,-0.04831149,-0.02782025,-0.12450478,-0.10631360,-0.03289896,-0.00508309,0.00154168,-0.00145049,-0.01928990,-0.02629056,0.08369102,0, 00:00:08.2
84,-0.00014216,-0.07365989,-0.01489338,-0.01908835,-0.00804915,-0.00500128,-0.01125221,-0.01245527,-0.05543900,-0.04877183,-0.02645738,-0.08680726,-0.07647462,-0.02191202,-0.01697731,-0.01311455,-0.00954827,-0.00780645,0.00317191,-0.07521228,-0.00232741,-0.13416712,-0.14867619,-0.07880531,-0.02809903,-0.01264973,-0.00183073,-0.01368956,-0.00466309,-0.08494426,-0.05255090,-0.12652324,-0.09399587,-0.13035503,-0.03844237,-0.02269107,0.00215132,-0.00511481,-0.00412436,-0.03899414,0.08093707,-0.04865616,-0.02790480,-0.12604843,-0.10715668,-0.03315420,-0.00502210,0.00145524,-0.00147747,-0.01967049,-0.02661667,0.10633410,0, 00:00:08.3
85,0.00067201,-0.07311457,-0.01489720,-0.01901908,-0.00838485,-0.00479585,-0.01150652,-0.01254267,-0.05615028,-0.04960525,-0.02769116,-0.08765459,-0.07709499,-0.02177673,-0.01705631,-0.01374990,-0.00970769,-0.00765968,0.00333540,-0.07624868,-0.00203273,-0.13539888,-0.14991619,-0.07932231,-0.02841790,-0.01287166,-0.00193650,-0.01409461,-0.00477743,-0.08524953,-0.05234448,-0.12780038,-0.09581549,-0.13164097,-0.03875017,-0.02302995,0.00222481,-0.00544941,-0.00395966,-0.03966474,0.08251466,-0.04888209,-0.02801450,-0.12731700,-0.10795285,-0.03347237,-0.00505288,0.00137099,-0.00148030,-0.02002785,-0.02700327,0.07704657,0, 00:00:08.4
86,0.00080361,-0.07243383,-0.01490515,-0.01942415,-0.00850659,-0.00464154,-0.01159533,-0.01264681,-0.05676297,-0.05040757,-0.02982716,-0.08871293,-0.07761826,-0.02154046,-0.01726405,-0.01438543,-0.00996207,-0.00750401,0.00358025,-0.07738724,-0.00173079,-0.13658218,-0.15146028,-0.07997466,-0.02885631,-0.01316337,-0.00199370,-0.01450255,-0.00483163,-0.08575076,-0.05220997,-0.12899394,-0.09758627,-0.13295400,-0.03899011,-0.02339310,0.00200157,-0.00575998,-0.00388524,-0.04038798,0.09615057,-0.04931783,-0.02806264,-0.12908936,-0.10870130,-0.03375034,-0.00508130,0.00121524,-0.00149160,-0.02038451,-0.02740506,0.07478575,0, 00:00:08.5
87,-0.00087785,-0.07295378,-0.01490712,-0.01995866,-0.00903101,-0.00451908,-0.01160361,-0.01272561,-0.05744368,-0.05129501,-0.02956147,-0.08964581,-0.07811036,-0.02144743,-0.01737334,-0.01399943,-0.00999598,-0.00743558,0.00382325,-0.07857025,-0.00130845,-0.13757080,-0.15274282,-0.08072821,-0.02919935,-0.01345568,-0.00202828,-0.01466888,-0.00485412,-0.08658510,-0.05214168,-0.13039716,-0.09911984,-0.13410062,-0.03929954,-0.02383940,0.00151179,-0.00600194,-0.00374612,-0.04109353,0.10223477,-0.04962805,-0.02816009,-0.13061607,-0.10948686,-0.03402463,-0.00504882,0.00104913,-0.00147658,-0.02078546,-0.02772031,0.10581926,0, 00:00:08.6
88,-0.00086089,-0.07379037,-0.01497946,-0.02027138,-0.00939381,-0.00453786,-0.01171421,-0.01274364,-0.05811466,-0.05195897,-0.03018970,-0.09032851,-0.07861476,-0.02190972,-0.01765511,-0.01377385,-0.01028759,-0.00753196,0.00407332,-0.07990128,-0.00083863,-0.13893843,-0.15377596,-0.08132096,-0.02963711,-0.01366655,-0.00211806,-0.01485243,-0.00494923,-0.08679744,-0.05186587,-0.13177648,-0.10082644,-0.13522093,-0.03967827,-0.02428058,0.00132801,-0.00616154,-0.00371152,-0.04160792,0.09363437,-0.04989053,-0.02846695,-0.13176228,-0.11021955,-0.03430469,-0.00515658,0.00095411,-0.00142880,-0.02117868,-0.02803616,0.08821379,0, 00:00:08.7
89,-0.00067310,-0.07431635,-0.01507786,-0.02098554,-0.00958124,-0.00451594,-0.01203504,-0.01270286,-0.05879736,-0.05231154,-0.03046960,-0.09088180,-0.07916166,-0.02212583,-0.01806552,-0.01375756,-0.01045126,-0.00749751,0.00429824,-0.08116305,-0.00016581,-0.14043444,-0.15472542,-0.08169093,-0.03008901,-0.01382160,-0.00226989,-0.01520743,-0.00507068,-0.08725701,-0.05192971,-0.13293530,-0.10220054,-0.13631810,-0.04004207,-0.02468267,0.00131026,-0.00633214,-0.00351818,-0.04202283,0.08603615,-0.05018508,-0.02866505,-0.13320237,-0.11088761,-0.03452441,-0.00518206,0.00091128,-0.00135433,-0.02151402,-0.02835940,0.07357500,0, 00:00:08.8
90,-0.00112681,-0.07411727,-0.01518692,-0.02103066,-0.00976237,-0.00476474,-0.01232916,-0.01259898,-0.05951799,-0.05310141,-0.03080127,-0.09150235,-0.07976957,-0.02194744,-0.01824376,-0.01389742,-0.01033472,-0.00738621,0.00448287,-0.08223437,0.00004368,-0.14198327,-0.15560956,-0.08219320,-0.03048280,-0.01403175,-0.00238563,-0.01545516,-0.00516513,-0.08744495,-0.05224665,-0.13407055,-0.10419011,-0.13736393,-0.04040669,-0.02507151,0.00147944,-0.00658334,-0.00323467,-0.04244945,0.07820979,-0.05051576,-0.02889671,-0.13408819,-0.11158898,-0.03481556,-0.00523927,0.00083510,-0.00130026,-0.02181775,-0.02861759,0.09882346,0, 00:00:08.9
91,0.00006303,-0.07422246,-0.01533000,-0.02122033,-0.00981275,-0.00502076,-0.01262496,-0.01248820,-0.06015284,-0.05366200,-0.03140777,-0.09224795,-0.07998450,-0.02187731,-0.01887177,-0.01451490,-0.01051809,-0.00725593,0.00461747,-0.08336029,0.00051614,-0.14335802,-0.15669572,-0.08264242,-0.03098516,-0.01428853,-0.00246692,-0.01593488,-0.00525025,-0.08763084,-0.05241951,-0.13523901,-0.10616779,-0.13834214,-0.04084297,-0.02559095,0.00148128,-0.00696083,-0.00300648,-0.04287000,0.08386644,-0.05105371,-0.02909888,-0.13569646,-0.11228800,-0.03508947,-0.00524281,0.00074126,-0.00126670,-0.02207567,-0.02888773,0.09312589,0, 00:00:09.0
92,0.00078262,-0.07484779,-0.01539761,-0.02121932,-0.00991146,-0.00527717,-0.01284136,-0.01244211,-0.06081055,-0.05430261,-0.03347534,-0.09301683,-0.08033161,-0.02152919,-0.01917528,-0.01512007,-0.01058583,-0.00701542,0.00481691,-0.08431135,0.00101176,-0.14491588,-0.15791461,-0.08301342,-0.03138565,-0.01460911,-0.00253866,-0.01634959,-0.00527281,-0.08849841,-0.05267119,-0.13650805,-0.10812438,-0.13928837,-0.04122791,-0.02590017,0.00105299,-0.00724980,-0.00289752,-0.04334891,0.08624230,-0.05155499,-0.02920414,-0.13705562,-0.11295078,-0.03535701,-0.00524416,0.00060278,-0.00124016,-0.02235181,-0.02919934,0.06356624,0, 00:00:09.1
93,0.00157576,-0.07485516,-0.01526891,-0.02144002,-0.01017325,-0.00549497,-0.01310971,-0.01242756,-0.06155282,-0.05547458,-0.03347115,-0.09375113,-0.08062532,-0.02133084,-0.01927312,-0.01567689,-0.01074583,-0.00690908,0.00500797,-0.08537321,0.00173115,-0.14652973,-0.15890409,-0.08365138,-0.03189647,-0.01492341,-0.00257490,-0.01674739,-0.00527545,-0.08901267,-0.05300692,-0.13769799,-0.11018934,-0.14013009,-0.04158213,-0.02626946,0.00058411,-0.00744021,-0.00283246,-0.04383827,0.10170410,-0.05213203,-0.02932977,-0.13800120,-0.11364510,-0.03560007,-0.00538088,0.00041824,-0.00122875,-0.02262553,-0.02944576,0.09045215,0, 00:00:09.2
94,0.00201459,-0.07434284,-0.01527258,-0.02189209,-0.01025181,-0.00575499,-0.01323316,-0.01246794,-0.06211770,-0.05622169,-0.03292243,-0.09456020,-0.08124650,-0.02135476,-0.01950721,-0.01561116,-0.01091422,-0.00688244,0.00525836,-0.08643354,0.00272277,-0.14816432,-0.16006927,-0.08408347,-0.03247331,-0.01522524,-0.00266832,-0.01689772,-0.00526285,-0.08963166,-0.05327896,-0.13880821,-0.11187313,-0.14093466,-0.04201401,-0.02670906,0.00018605,-0.00772338,-0.00265422,-0.04427104,0.10256720,-0.05268122,-0.02945629,-0.13891293,-0.11433592,-0.03591736,-0.00539524,0.00031165,-0.00121666,-0.02290271,-0.02965929,0.10006422,0, 00:00:09.3
95,0.00323591,-0.07456817,-0.01548191,-0.02240059,-0.01055309,-0.00601604,-0.01359879,-0.01240453,-0.06271020,-0.05674950,-0.03414045,-0.09523775,-0.08175539,-0.02189597,-0.02001884,-0.01605637,-0.01105507,-0.00693408,0.00541971,-0.08737236,0.00320346,-0.14934865,-0.16076732,-0.08448005,-0.03302634,-0.01538712,-0.00282342,-0.01714173,-0.00522547,-0.09021086,-0.05321180,-0.13997711,-0.11370182,-0.14176425,-0.04249795,-0.02717744,0.00043981,-0.00804416,-0.00256832,-0.04446103,0.08848759,-0.05338309,-0.02957160,-0.13971330,-0.11504526,-0.03613935,-0.00540383,0.00026569,-0.00110451,-0.02321971,-0.02991998,0.06946463,0, 00:00:09.4
96,0.00352826,-0.07411257,-0.01580090,-0.02294806,-0.01107994,-0.00621868,-0.01383674,-0.01233825,-0.06320059,-0.05748158,-0.03490427,-0.09578262,-0.08185577,-0.02198383,-0.02027321,-0.01664372,-0.01121828,-0.00685875,0.00547598,-0.08810902,0.00361210,-0.15045595,-0.16145453,-0.08466725,-0.03360523,-0.01561411,-0.00298378,-0.01742646,-0.00517225,-0.09049961,-0.05313602,-0.14107050,-0.11531310,-0.14260970,-0.04296827,-0.02763910,0.00073076,-0.00835359,-0.00245263,-0.04457510,0.08042343,-0.05417551,-0.02982959,-0.14138737,-0.11568649,-0.03629512,-0.00532572,0.00025385,-0.00095789,-0.02343061,-0.03016959,0.08512060,0, 00:00:09.5
97,0.00269512,-0.07491386,-0.01618749,-0.02348627,-0.01135535,-0.00624034,-0.01422216,-0.01226154,-0.06379307,-0.05830705,-0.03689315,-0.09634009,-0.08224724,-0.02193980,-0.02055733,-0.01663822,-0.01119035,-0.00676798,0.00552361,-0.08870590,0.00419945,-0.15176229,-0.16218513,-0.08498516,-0.03409073,-0.01594787,-0.00307757,-0.01772047,-0.00509813,-0.09137390,-0.05334484,-0.14220352,-0.11650553,-0.14345458,-0.04338384,-0.02793334,0.00041793,-0.00859455,-0.00227200,-0.04471706,0.07561938,-0.05471643,-0.03011869,-0.14215186,-0.11634872,-0.03636842,-0.00528067,0.00013062,-0.00073678,-0.02350816,-0.03041653,0.10101891,0, 00:00:09.6
98,0.00211311,-0.07488321,-0.01741445,-0.02426052,-0.01158959,-0.00623812,-0.01450549,-0.01226076,-0.06420960,-0.05889884,-0.03593000,-0.09690101,-0.08263223,-0.02183911,-0.02081009,-0.01728210,-0.01117415,-0.00665092,0.00560880,-0.08927203,0.00452767,-0.15306213,-0.16238870,-0.08543745,-0.03459597,-0.01626611,-0.00318679,-0.01824927,-0.00508655,-0.09171311,-0.05333932,-0.14328462,-0.11815834,-0.14420395,-0.04378781,-0.02846864,-0.00032102,-0.00877780,-0.00202610,-0.04499438,0.07761185,-0.05510497,-0.03031578,-0.14278968,-0.11700565,-0.03656358,-0.00539029,-0.00003288,-0.00057646,-0.02366978,-0.03070620,0.07203152,0, 00:00:09.7
99,0.00096232,-0.07478206,-0.01736053,-0.02404064,-0.01211678,-0.00640163,-0.01475535,-0.01223403,-0.06466441,-0.05954183,-0.03762868,-0.09756009,-0.08304528,-0.02152165,-0.02094401,-0.01741545,-0.01134115,-0.00649154,0.00573935,-0.08995800,0.00499647,-0.15464437,-0.16299522,-0.08595823,-0.03513465,-0.01663236,-0.00327839,-0.01865718,-0.00500758,-0.09210161,-0.05336116,-0.14436176,-0.11950337,-0.14487095,-0.04411613,-0.02889715,-0.00092019,-0.00896068,-0.00182427,-0.04535928,0.08705103,-0.05567823,-0.03053557,-0.14344686,-0.11762027,-0.03670157,-0.00538035,-0.00018966,-0.00046400,-0.02389011,-0.03098134,0.07036567,0, 00:00:09.8
100,0.00115259,-0.07480623,-0.01766033,-0.02419186,-0.01251978,-0.00660025,-0.01495116,-0.01226396,-0.06514966,-0.06013179,-0.03870522,-0.09816813,-0.08333260,-0.02142101,-0.02124425,-0.01755257,-0.01161623,-0.00644824,0.00590529,-0.09063140,0.00526073,-0.15598369,-0.16371450,-0.08639574,-0.03579223,-0.01701964,-0.00338987,-0.01904112,-0.00499259,-0.09208973,-0.05338570,-0.14540152,-0.12069115,-0.14550352,-0.04448918,-0.02925593,-0.00064314,-0.00930931,-0.00181356,-0.04573248,0.09757939,-0.05625165,-0.03064654,-0.14423332,-0.11814867,-0.03682728,-0.00534804,-0.00027932,-0.00034243,-0.02409698,-0.03119922,0.10126077,0, 00:00:09.9
101,0.00007370,-0.07459322,-0.01775203,-0.02428139,-0.01270097,-0.00662454,-0.01522211,-0.01228918,-0.06566686,-0.06109826,-0.03888579,-0.09858668,-0.08373386,-0.02151541,-0.02144399,-0.01806109,-0.01172759,-0.00645297,0.00609009,-0.09137721,0.00581208,-0.15736946,-0.16432810,-0.08661667,-0.03635341,-0.01739533,-0.00352830,-0.01963836,-0.00499127,-0.09261424,-0.05354302,-0.14636244,-0.12173348,-0.14609781,-0.04488168,-0.02968090,-0.00022915,-0.00982081,-0.00173158,-0.04607508,0.09362072,-0.05683500,-0.03057753,-0.14479691,-0.11863852,-0.03692642,-0.00520204,-0.00031211,-0.00020084,-0.02428879,-0.03144401,0.07950853,0, 00:00:10.0
102,-0.00113387,-0.07410859,-0.01755857,-0.02480145,-0.01288287,-0.00675174,-0.01562829,-0.01227729,-0.06614629,-0.06192657,-0.03982484,-0.09901239,-0.08371331,-0.02201269,-0.02169352,-0.01821018,-0.01204772,-0.00662193,0.00622663,-0.09196202,0.00632327,-0.15848336,-0.16510060,-0.08674026,-0.03698574,-0.01763096,-0.00367378,-0.02008979,-0.00504376,-0.09288232,-0.05339509,-0.14723825,-0.12302519,-0.14670315,-0.04539164,-0.03014424,-0.00059041,-0.01025697,-0.00162656,-0.04617506,0.08507452,-0.05735505,-0.03088290,-0.14578301,-0.11914162,-0.03703702,-0.00516591,-0.00036304,-0.00002683,-0.02448633,-0.03170050,0.06819838,0, 00:00:10.1
103,-0.00136448,-0.07440004,-0.01710819,-0.02525108,-0.01318648,-0.00688193,-0.01617627,-0.01216684,-0.06668913,-0.06217214,-0.04081142,-0.09924750,-0.08380276,-0.02208811,-0.02179128,-0.01857215,-0.01231404,-0.00652989,0.00631531,-0.09247662,0.00682261,-0.15930834,-0.16566795,-0.08695049,-0.03754730,-0.01785912,-0.00380057,-0.02063260,-0.00501353,-0.09287276,-0.05364884,-0.14817655,-0.12434272,-0.14723966,-0.04571901,-0.03058661,-0.00148826,-0.01047464,-0.00150889,-0.04626642,0.07625238,-0.05783164,-0.03108610,-0.14644998,-0.11972556,-0.03718017,-0.00523347,-0.00048728,0.00013751,-0.02468093,-0.03190092,0.10039976,0, 00:00:10.2
104,-0.00175629,-0.07545862,-0.01751892,-0.02510473,-0.01361580,-0.00693865,-0.01652379,-0.01205936,-0.06716961,-0.06266709,-0.04114876,-0.09951760,-0.08425571,-0.02202703,-0.02218664,-0.01929204,-0.01255161,-0.00645885,0.00639815,-0.09284216,0.00740000,-0.16024151,-0.16623239,-0.08720219,-0.03817812,-0.01812472,-0.00388346,-0.02109867,-0.00485719,-0.09309660,-0.05380381,-0.14904574,-0.12534443,-0.14781992,-0.04605394,-0.03093067,-0.00217459,-0.01057606,-0.00128492,-0.04640126,0.07577624,-0.05828618,-0.03112184,-0.14746311,-0.12037757,-0.03728776,-0.00517467,-0.00065254,0.00023273,-0.02484369,-0.03213337,0.08521051,0, 00:00:10.3
105,-0.00332081,-0.07622802,-0.01804814,-0.02469553,-0.01375602,-0.00682232,-0.01679665,-0.01199363,-0.06751079,-0.06332733,-0.04056586,-0.09990183,-0.08446309,-0.02179120,-0.02244179,-0.01999074,-0.01248419,-0.00634360,0.00650378,-0.09326442,0.00832414,-0.16122633,-0.16619854,-0.08749686,-0.03884333,-0.01841063,-0.00397340,-0.02157363,-0.00478381,-0.09332584,-0.05390459,-0.15001173,-0.12624571,-0.14841071,-0.04639955,-0.03133986,-0.00195570,-0.01079021,-0.00111870,-0.04662630,0.07705472,-0.05863810,-0.03114355,-0.14884464,-0.12109039,-0.03739253,-0.00516590,-0.00079219,0.00033224,-0.02502246,-0.03240822,0.06234075,0, 00:00:10.4
106,-0.00498202,-0.07702474,-0.01855967,-0.02487678,-0.01388701,-0.00712411,-0.01691446,-0.01194163,-0.06791941,-0.06404446,-0.04108634,-0.10029475,-0.08433539,-0.02168780,-0.02266356,-0.02047445,-0.01253910,-0.00622836,0.00663373,-0.09397453,0.00872855,-0.16184671,-0.16608636,-0.08770395,-0.03965896,-0.01870353,-0.00406258,-0.02189796,-0.00467830,-0.09383969,-0.05405013,-0.15087870,-0.12754510,-0.14897861,-0.04676307,-0.03168441,-0.00157378,-0.01117209,-0.00092018,-0.04685847,0.09275877,-0.05893563,-0.03100144,-0.14980440,-0.12174937,-0.03748307,-0.00502430,-0.00086381,0.00040788,-0.02521242,-0.03259837,0.08803126,0, 00:00:10.5
107,-0.00541995,-0.07778345,-0.01876644,-0.02523668,-0.01409655,-0.00715690,-0.01695825,-0.01198080,-0.06828302,-0.06486593,-0.04037263,-0.10059586,-0.08443136,-0.02175121,-0.02282259,-0.02108788,-0.01269078,-0.00620423,0.00679552,-0.09436804,0.00939231,-0.16312836,-0.16633897,-0.08788534,-0.04025736,-0.01903380,-0.00416836,-0.02221367,-0.00460099,-0.09396368,-0.05408295,-0.15169938,-0.12890191,-0.14953014,-0.04713684,-0.03209860,-0.00176549,-0.01168418,-0.00072379,-0.04707073,0.09859657,-0.05930067,-0.03108371,-0.15092133,-0.12225837,-0.03759581,-0.00498991,-0.00098792,0.00050100,-0.02537863,-0.03279406,0.09337816,0, 00:00:10.6
108,-0.00537294,-0.07844444,-0.01932001,-0.02528869,-0.01429090,-0.00717816,-0.01702535,-0.01200058,-0.06854974,-0.06551949,-0.04063071,-0.10104124,-0.08437724,-0.02208266,-0.02319670,-0.02134849,-0.01278229,-0.00618848,0.00695565,-0.09483696,0.00980266,-0.16420494,-0.16698349,-0.08804616,-0.04081079,-0.01934772,-0.00427645,-0.02263331,-0.00452756,-0.09378360,-0.05423976,-0.15265472,-0.13037397,-0.15009782,-0.04748205,-0.03258576,-0.00255916,-0.01205358,-0.00060270,-0.04716511,0.08967565,-0.05976209,-0.03113707,-0.15223965,-0.12282127,-0.03770687,-0.00496336,-0.00114123,0.00060465,-0.02553958,-0.03303917,0.06516344,0, 00:00:10.7
109,-0.00728439,-0.07912150,-0.01914847,-0.02518094,-0.01480881,-0.00739502,-0.01735561,-0.01186877,-0.06880446,-0.06601553,-0.04151472,-0.10105170,-0.08442053,-0.02261616,-0.02353672,-0.02136510,-0.01309118,-0.00625870,0.00701196,-0.09520600,0.01002209,-0.16506034,-0.16701075,-0.08778541,-0.04151646,-0.01958641,-0.00442139,-0.02312608,-0.00441911,-0.09398478,-0.05429794,-0.15341869,-0.13197161,-0.15068781,-0.04792831,-0.03285940,-0.00325506,-0.01225635,-0.00043614,-0.04704333,0.08164953,-0.06030282,-0.03128693,-0.15362632,-0.12338464,-0.03770497,-0.00483626,-0.00126251,0.00080771,-0.02557040,-0.03324126,0.08436979,0, 00:00:10.8
110,-0.00744891,-0.07864393,-0.01946797,-0.02489050,-0.01494077,-0.00762070,-0.01764271,-0.01173522,-0.06906323,-0.06625932,-0.04192484,-0.10102369,-0.08456333,-0.02254194,-0.02375510,-0.02167442,-0.01329856,-0.00615985,0.00699589,-0.09530488,0.01032881,-0.16595531,-0.16714230,-0.08774498,-0.04213265,-0.01990271,-0.00459109,-0.02366714,-0.00431417,-0.09394985,-0.05442680,-0.15420045,-0.13360980,-0.15114288,-0.04826083,-0.03319204,-0.00333092,-0.01250705,-0.00020481,-0.04690611,0.07258130,-0.06094518,-0.03135860,-0.15466335,-0.12395980,-0.03766602,-0.00474676,-0.00135608,0.00110290,-0.02551104,-0.03343379,0.10118419,0, 00:00:10.9
111,-0.00742443,-0.07867415,-0.01962459,-0.02489116,-0.01502996,-0.00758222,-0.01796162,-0.01159113,-0.06924273,-0.06631855,-0.04152917,-0.10110138,-0.08448002,-0.02221455,-0.02387632,-0.02168956,-0.01371755,-0.00596630,0.00698622,-0.09556035,0.01092724,-0.16715974,-0.16705543,-0.08772138,-0.04276941,-0.02022165,-0.00476179,-0.02409174,-0.00416070,-0.09439976,-0.05482510,-0.15501751,-0.13478173,-0.15156247,-0.04855493,-0.03344167,-0.00324507,-0.01284998,0.00012060,-0.04689441,0.06905323,-0.06147531,-0.03151926,-0.15494612,-0.12452102,-0.03761771,-0.00455501,-0.00142041,0.00134536,-0.02548629,-0.03368825,0.06532550,0, 00:00:11.0
112,-0.00662877,-0.07815648,-0.01986229,-0.02479811,-0.01536516,-0.00786206,-0.01821766,-0.01154180,-0.06957972,-0.06649172,-0.04199921,-0.10123079,-0.08446109,-0.02198984,-0.02428821,-0.02186922,-0.01392784,-0.00583318,0.00703033,-0.09578278,0.01179563,-0.16793706,-0.16733059,-0.08790071,-0.04344761,-0.02061953,-0.00490482,-0.02474133,-0.00406158,-0.09459191,-0.05498678,-0.15571392,-0.13592736,-0.15199079,-0.04882491,-0.03386902,-0.00338227,-0.01331040,0.00029166,-0.04697993,0.07808897,-0.06199648,-0.03131148,-0.15545490,-0.12502456,-0.03760453,-0.00446182,-0.00153722,0.00151142,-0.02553493,-0.03391576,0.07336696,0, 00:00:11.1
113,-0.00529881,-0.07767679,-0.01970231,-0.02472039,-0.01597231,-0.00793260,-0.01847458,-0.01151474,-0.06990398,-0.06714603,-0.04308407,-0.10145913,-0.08477516,-0.02186244,-0.02477595,-0.02227212,-0.01437169,-0.00579265,0.00712963,-0.09591036,0.01268614,-0.16875701,-0.16759501,-0.08805718,-0.04399964,-0.02095093,-0.00500486,-0.02525761,-0.00401022,-0.09434111,-0.05513008,-0.15649195,-0.13703158,-0.15239152,-0.04913773,-0.03425205,-0.00386208,-0.01373737,0.00057370,-0.04708973,0.09090650,-0.06271654,-0.03106944,-0.15648650,-0.12553868,-0.03766194,-0.00431531,-0.00168176,0.00166442,-0.02560594,-0.03406957,0.09681243,0, 00:00:11.2
114,-0.00610576,-0.07767210,-0.02007054,-0.02499240,-0.01618742,-0.00812602,-0.01878497,-0.01151250,-0.07010148,-0.06759887,-0.04374059,-0.10178760,-0.08510269,-0.02181720,-0.02508104,-0.02264123,-0.01475241,-0.00576610,0.00724994,-0.09609000,0.01361155,-0.16954161,-0.16779904,-0.08816959,-0.04457794,-0.02130442,-0.00509301,-0.02589053,-0.00399147,-0.09431990,-0.05519373,-0.15719308,-0.13839240,-0.15279450,-0.04938791,-0.03457787,-0.00459338,-0.01412460,0.00077586,-0.04721808,0.09578155,-0.06352267,-0.03103350,-0.15705073,-0.12594667,-0.03771410,-0.00413051,-0.00183323,0.00182266,-0.02571616,-0.03426553,0.07384574,0, 00:00:11.3
115,-0.00736914,-0.07741779,-0.02058742,-0.02478558,-0.01622097,-0.00810744,-0.01897850,-0.01148668,-0.07030208,-0.06772035,-0.04268580,-0.10196844,-0.08521280,-0.02203193,-0.02547767,-0.02286280,-0.01519738,-0.00580277,0.00736225,-0.09624405,0.01367855,-0.17004874,-0.16784471,-0.08823550,-0.04511219,-0.02159726,-0.00521883,-0.02635722,-0.00390435,-0.09384822,-0.05501833,-0.15785363,-0.13962995,-0.15319216,-0.04967654,-0.03493702,-0.00496743,-0.01442838,0.00099722,-0.04723225,0.08909295,-0.06409051,-0.03097909,-0.15741265,-0.12636386,-0.03767686,-0.00409761,-0.00195858,0.00201735,-0.02580299,-0.03445507,0.06820468,0, 00:00:11.4
116,-0.00731331,-0.07781575,-0.02107728,-0.02467518,-0.01647221,-0.00823444,-0.01933312,-0.01138419,-0.07043055,-0.06785218,-0.04206211,-0.10207253,-0.08521351,-0.02244772,-0.02567720,-0.02316604,-0.01551465,-0.00590464,0.00739455,-0.09643812,0.01415838,-0.17051324,-0.16784586,-0.08799161,-0.04582015,-0.02180114,-0.00540947,-0.02689164,-0.00384065,-0.09340201,-0.05461516,-0.15838528,-0.14089443,-0.15364611,-0.05006090,-0.03536707,-0.00521017,-0.01472523,0.00113042,-0.04705469,0.07923250,-0.06476799,-0.03108037,-0.15761152,-0.12674035,-0.03767906,-0.00399616,-0.00197891,0.00226131,-0.02583930,-0.03460051,0.09986290,0, 00:00:11.5
117,-0.00850126,-0.07762742,-0.02115802,-0.02480331,-0.01661315,-0.00846053,-0.01961312,-0.01128809,-0.07061131,-0.06793710,-0.04126159,-0.10192853,-0.08518770,-0.02216770,-0.02554231,-0.02360092,-0.01565051,-0.00584974,0.00739072,-0.09642296,0.01433192,-0.17101680,-0.16780886,-0.08807816,-0.04639487,-0.02207187,-0.00562718,-0.02751998,-0.00375584,-0.09303852,-0.05470271,-0.15897788,-0.14234260,-0.15402816,-0.05035812,-0.03566016,-0.00526730,-0.01509101,0.00130060,-0.04693080,0.07255608,-0.06538531,-0.03120571,-0.15771341,-0.12718944,-0.03767852,-0.00393266,-0.00199015,0.00247201,-0.02580051,-0.03481371,0.08395089,0, 00:00:11.6
118,-0.00995216,-0.07764947,-0.02129828,-0.02515570,-0.01651981,-0.00857427,-0.01999089,-0.01123298,-0.07073581,-0.06788823,-0.04108761,-0.10196251,-0.08485699,-0.02178796,-0.02568534,-0.02431562,-0.01572090,-0.00570804,0.00743302,-0.09632918,0.01469187,-0.17173968,-0.16786866,-0.08814435,-0.04687741,-0.02240721,-0.00580291,-0.02814717,-0.00363621,-0.09302388,-0.05452932,-0.15973240,-0.14337546,-0.15440875,-0.05053427,-0.03594809,-0.00545329,-0.01550849,0.00150262,-0.04693844,0.06507331,-0.06598572,-0.03106247,-0.15895298,-0.12751870,-0.03760152,-0.00379472,-0.00202865,0.00266599,-0.02557758,-0.03507454,0.05951706,0, 00:00:11.7
119,-0.01107521,-0.07730315,-0.02144886,-0.02525858,-0.01675375,-0.00890931,-0.02016972,-0.01122132,-0.07084396,-0.06792237,-0.04087789,-0.10216577,-0.08491227,-0.02169317,-0.02606282,-0.02471658,-0.01582994,-0.00568555,0.00750386,-0.09622831,0.01542998,-0.17231932,-0.16807038,-0.08831487,-0.04737520,-0.02274346,-0.00593380,-0.02844993,-0.00349255,-0.09303670,-0.05421017,-0.16053216,-0.14427841,-0.15468992,-0.05078042,-0.03619142,-0.00601211,-0.01582194,0.00180720,-0.04698223,0.08547287,-0.06657822,-0.03099751,-0.15918268,-0.12775351,-0.03740330,-0.00365683,-0.00208346,0.00293941,-0.02520335,-0.03526466,0.09053439,0, 00:00:11.8
120,-0.01040184,-0.07670318,-0.02193952,-0.02549441,-0.01715411,-0.00904903,-0.02043349,-0.01119051,-0.07095675,-0.06809557,-0.04127079,-0.10236891,-0.08479476,-0.02164006,-0.02634305,-0.02488505,-0.01606791,-0.00572625,0.00766107,-0.09635189,0.01591433,-0.17313404,-0.16797440,-0.08838559,-0.04789395,-0.02311256,-0.00606633,-0.02893564,-0.00350392,-0.09337188,-0.05405783,-0.16104326,-0.14519212,-0.15490749,-0.05099247,-0.03641633,-0.00670701,-0.01611674,0.00201690,-0.04701148,0.09267927,-0.06701826,-0.03080813,-0.15950269,-0.12794690,-0.03731798,-0.00365797,-0.00217784,0.00321732,-0.02501206,-0.03543627,0.08601058,0, 00:00:11.9
121,-0.01045911,-0.07621803,-0.02232687,-0.02550873,-0.01734595,-0.00914587,-0.02055426,-0.01117878,-0.07115547,-0.06827159,-0.04243792,-0.10236804,-0.08466417,-0.02167827,-0.02665331,-0.02535202,-0.01636358,-0.00573823,0.00784241,-0.09647486,0.01666035,-0.17380394,-0.16802198,-0.08848727,-0.04846712,-0.02347105,-0.00622091,-0.02947966,-0.00350605,-0.09343603,-0.05396502,-0.16166772,-0.14611277,-0.15518053,-0.05122634,-0.03682326,-0.00710597,-0.01649964,0.00214153,-0.04704244,0.09532152,-0.06743518,-0.03064431,-0.16008566,-0.12821385,-0.03733437,-0.00355344,-0.00223221,0.00345906,-0.02493979,-0.03563652,0.06182861,0, 00:00:12.0
122,-0.01102124,-0.07620332,-0.02267510,-0.02559670,-0.01748464,-0.00934880,-0.02095584,-0.01119250,-0.07125594,-0.06833258,-0.04363083,-0.10236598,-0.08443832,-0.02206918,-0.02683820,-0.02587927,-0.01656714,-0.00590909,0.00797355,-0.09652284,0.01746967,-0.17470038,-0.16822326,-0.08841673,-0.04907183,-0.02380729,-0.00638028,-0.03005458,-0.00347170,-0.09425188,-0.05365781,-0.16231626,-0.14735420,-0.15551868,-0.05151810,-0.03723848,-0.00693920,-0.01693712,0.00226622,-0.04695122,0.09037992,-0.06796420,-0.03064994,-0.16019252,-0.12840563,-0.03739991,-0.00346120,-0.00220205,0.00368648,-0.02484672,-0.03577556,0.08621413,0, 00:00:12.1
123,-0.01024954,-0.07618095,-0.02297887,-0.02564267,-0.01759801,-0.00944391,-0.02142515,-0.01104993,-0.07138915,-0.06862842,-0.04322062,-0.10198803,-0.08433042,-0.02246872,-0.02733710,-0.02641071,-0.01675705,-0.00601490,0.00802435,-0.09657249,0.01758788,-0.17521361,-0.16827086,-0.08809046,-0.04951309,-0.02405351,-0.00660575,-0.03055653,-0.00343252,-0.09431443,-0.05312775,-0.16281675,-0.14816570,-0.15582207,-0.05180794,-0.03761657,-0.00686315,-0.01737273,0.00240052,-0.04669503,0.07622971,-0.06847908,-0.03053259,-0.16055995,-0.12860323,-0.03737845,-0.00331819,-0.00212126,0.00397837,-0.02473786,-0.03590164,0.09799092,0, 00:00:12.2
124,-0.01122126,-0.07656652,-0.02285421,-0.02565397,-0.01772260,-0.00995531,-0.02185557,-0.01091517,-0.07143623,-0.06870535,-0.04157963,-0.10161687,-0.08416978,-0.02211691,-0.02796802,-0.02706229,-0.01717371,-0.00591348,0.00811064,-0.09659104,0.01773902,-0.17575823,-0.16797259,-0.08809197,-0.04996063,-0.02430178,-0.00677386,-0.03121352,-0.00334498,-0.09469073,-0.05292051,-0.16327678,-0.14916970,-0.15604019,-0.05193661,-0.03791475,-0.00743605,-0.01768203,0.00245575,-0.04655375,0.06924371,-0.06883467,-0.03061746,-0.16180772,-0.12871560,-0.03741522,-0.00327829,-0.00215257,0.00418371,-0.02461003,-0.03611477,0.06625351,0, 00:00:12.3
125,-0.01082164,-0.07644691,-0.02258290,-0.02606149,-0.01779862,-0.01010105,-0.02219988,-0.01085182,-0.07153368,-0.06884488,-0.04145996,-0.10142055,-0.08386307,-0.02166003,-0.02864163,-0.02719212,-0.01760661,-0.00576594,0.00825362,-0.09647318,0.01793689,-0.17600210,-0.16756448,-0.08817305,-0.05044133,-0.02464375,-0.00687440,-0.03181808,-0.00327361,-0.09465888,-0.05267243,-0.16373375,-0.15034999,-0.15618213,-0.05205780,-0.03815306,-0.00834221,-0.01791067,0.00251746,-0.04662062,0.06729966,-0.06917622,-0.03058103,-0.16253765,-0.12884280,-0.03742333,-0.00330924,-0.00227147,0.00426698,-0.02446680,-0.03630465,0.07342790,0, 00:00:12.4
126,-0.00979955,-0.07526428,-0.02251741,-0.02603622,-0.01807373,-0.01024850,-0.02251558,-0.01081369,-0.07159099,-0.06872099,-0.04137033,-0.10134715,-0.08323041,-0.02148378,-0.02904110,-0.02793081,-0.01779152,-0.00581919,0.00838519,-0.09663451,0.01809105,-0.17624398,-0.16768412,-0.08829547,-0.05092936,-0.02498673,-0.00698103,-0.03233739,-0.00325158,-0.09479454,-0.05217497,-0.16423947,-0.15097554,-0.15633473,-0.05224955,-0.03848363,-0.00895240,-0.01826843,0.00265078,-0.04670700,0.08967149,-0.06955852,-0.03039033,-0.16263294,-0.12886576,-0.03738991,-0.00324264,-0.00232367,0.00438423,-0.02434693,-0.03642394,0.09710613,0, 00:00:12.5
127,-0.00973220,-0.07433171,-0.02237997,-0.02625370,-0.01799635,-0.01017804,-0.02267497,-0.01084863,-0.07163657,-0.06877281,-0.04133468,-0.10140596,-0.08277858,-0.02133326,-0.02928726,-0.02853876,-0.01808849,-0.00580502,0.00852658,-0.09680290,0.01794537,-0.17681240,-0.16801465,-0.08849046,-0.05152902,-0.02538934,-0.00713196,-0.03284352,-0.00323370,-0.09485513,-0.05201522,-0.16488008,-0.15181828,-0.15651676,-0.05241955,-0.03884713,-0.00868092,-0.01872933,0.00279291,-0.04677732,0.09583219,-0.06996585,-0.03017861,-0.16279279,-0.12896603,-0.03746971,-0.00318878,-0.00231221,0.00456262,-0.02419183,-0.03660087,0.06730010,0, 00:00:12.6
128,-0.00954480,-0.07348685,-0.02271148,-0.02678696,-0.01797533,-0.01005759,-0.02288415,-0.01086616,-0.07165536,-0.06892085,-0.04265090,-0.10132730,-0.08262596,-0.02123054,-0.02956715,-0.02915988,-0.01871436,-0.00583641,0.00867847,-0.09690758,0.01834822,-0.17720528,-0.16818202,-0.08854721,-0.05210978,-0.02575967,-0.00725910,-0.03350054,-0.00324543,-0.09491120,-0.05173121,-0.16540192,-0.15276283,-0.15675211,-0.05254377,-0.03917487,-0.00845442,-0.01923670,0.00284030,-0.04681814,0.09770738,-0.07044502,-0.02999957,-0.16283758,-0.12906852,-0.03753632,-0.00302282,-0.00229191,0.00474472,-0.02406818,-0.03677690,0.06968509,0, 00:00:12.7
129,-0.00971538,-0.07340121,-0.02328731,-0.02745646,-0.01821789,-0.01018672,-0.02305911,-0.01084433,-0.07160843,-0.06906435,-0.04375275,-0.10115547,-0.08263721,-0.02157229,-0.02990118,-0.02985023,-0.01903414,-0.00597868,0.00882515,-0.09708886,0.01875684,-0.17754699,-0.16796827,-0.08856349,-0.05264788,-0.02609754,-0.00742363,-0.03412637,-0.00326731,-0.09428759,-0.05138257,-0.16585675,-0.15385360,-0.15700498,-0.05283220,-0.03960722,-0.00901985,-0.01969913,0.00281137,-0.04673991,0.09136745,-0.07108654,-0.02983554,-0.16334036,-0.12912139,-0.03762505,-0.00303482,-0.00226956,0.00493115,-0.02403104,-0.03689645,0.10129282,0, 00:00:12.8
130,-0.01078911,-0.07411869,-0.02381930,-0.02765727,-0.01842455,-0.01046450,-0.02331829,-0.01072653,-0.07143261,-0.06860521,-0.04377148,-0.10098617,-0.08221304,-0.02186203,-0.03003366,-0.03023283,-0.01948391,-0.00607269,0.00892415,-0.09695399,0.01933745,-0.17841306,-0.16774815,-0.08835434,-0.05313719,-0.02631229,-0.00761996,-0.03473619,-0.00324558,-0.09365924,-0.05093240,-0.16631238,-0.15515357,-0.15721259,-0.05309520,-0.04018387,-0.01003986,-0.01999740,0.00287982,-0.04656509,0.07902699,-0.07163939,-0.02988226,-0.16423114,-0.12920348,-0.03773183,-0.00314256,-0.00224134,0.00515001,-0.02395046,-0.03709525,0.08003084,0, 00:00:12.9
131,-0.01055157,-0.07406296,-0.02424010,-0.02758903,-0.01856411,-0.01023479,-0.02372649,-0.01063458,-0.07146294,-0.06850003,-0.04396463,-0.10068360,-0.08160367,-0.02141482,-0.03006136,-0.03090858,-0.01976919,-0.00599275,0.00897659,-0.09690254,0.01991519,-0.17903887,-0.16698441,-0.08825830,-0.05348523,-0.02653133,-0.00775923,-0.03548019,-0.00324489,-0.09331845,-0.05067168,-0.16687220,-0.15665033,-0.15736628,-0.05319444,-0.04063703,-0.01073419,-0.02011945,0.00304175,-0.04659542,0.06875888,-0.07220185,-0.02989545,-0.16466226,-0.12932986,-0.03775892,-0.00314424,-0.00222977,0.00531478,-0.02379616,-0.03736052,0.06312365,0, 00:00:13.0
132,-0.01145882,-0.07331961,-0.02388476,-0.02776179,-0.01864146,-0.01025054,-0.02395051,-0.01068728,-0.07149406,-0.06885594,-0.04494636,-0.10057525,-0.08139031,-0.02095719,-0.03057863,-0.03141359,-0.01986223,-0.00588307,0.00902607,-0.09668966,0.02026759,-0.17964135,-0.16671781,-0.08824860,-0.05391670,-0.02691857,-0.00788759,-0.03612991,-0.00316798,-0.09289432,-0.05070735,-0.16741966,-0.15803552,-0.15755641,-0.05333252,-0.04101560,-0.01051200,-0.02040724,0.00309016,-0.04677883,0.07645748,-0.07290907,-0.02986968,-0.16512859,-0.12945893,-0.03780732,-0.00314966,-0.00218305,0.00537304,-0.02362971,-0.03757744,0.09065035,0, 00:00:13.1
133,-0.01297215,-0.07287795,-0.02390627,-0.02819990,-0.01889150,-0.01025462,-0.02422008,-0.01073319,-0.07150710,-0.06898896,-0.04464649,-0.10044074,-0.08133468,-0.02075144,-0.03092439,-0.03148028,-0.01997396,-0.00583486,0.00907581,-0.09659529,0.02079864,-0.17973399,-0.16632292,-0.08850522,-0.05453128,-0.02730926,-0.00805318,-0.03661745,-0.00314305,-0.09244377,-0.05062423,-0.16787916,-0.15932946,-0.15772523,-0.05341793,-0.04140300,-0.01037280,-0.02088636,0.00320531,-0.04696467,0.08954264,-0.07370682,-0.02972475,-0.16650133,-0.12956175,-0.03781374,-0.00305560,-0.00208455,0.00549691,-0.02344205,-0.03780324,0.08425935,0, 00:00:13.2
134,-0.01399461,-0.07262716,-0.02382745,-0.02821046,-0.01910889,-0.01031475,-0.02442589,-0.01083019,-0.07156996,-0.06911650,-0.04463601,-0.10046356,-0.08119704,-0.02057964,-0.03107403,-0.03123701,-0.02031725,-0.00583188,0.00917079,-0.09662288,0.02114041,-0.18012369,-0.16593064,-0.08874750,-0.05532043,-0.02764935,-0.00820545,-0.03708282,-0.00311553,-0.09251735,-0.05047126,-0.16822125,-0.16048542,-0.15790889,-0.05350328,-0.04182862,-0.01079475,-0.02136386,0.00338430,-0.04712439,0.09632832,-0.07448122,-0.02950413,-0.16678694,-0.12963395,-0.03781130,-0.00311687,-0.00204936,0.00568599,-0.02324187,-0.03807633,0.05873637,0, 00:00:13.3
135,-0.01524342,-0.07226287,-0.02416856,-0.02833341,-0.01949482,-0.01037059,-0.02467120,-0.01083481,-0.07145088,-0.06935585,-0.04522640,-0.10053128,-0.08106819,-0.02058647,-0.03142449,-0.03162622,-0.02065938,-0.00594665,0.00928763,-0.09662103,0.02170212,-0.18060811,-0.16548654,-0.08893578,-0.05593605,-0.02801691,-0.00831843,-0.03759065,-0.00302979,-0.09294586,-0.05047531,-0.16870573,-0.16141039,-0.15808018,-0.05364592,-0.04222376,-0.01164643,-0.02173615,0.00348265,-0.04725861,0.09670006,-0.07524221,-0.02934179,-0.16712685,-0.12977044,-0.03785243,-0.00311361,-0.00203510,0.00586654,-0.02304946,-0.03829903,0.09020611,0, 00:00:13.4
136,-0.01555563,-0.07270529,-0.02490033,-0.02814695,-0.01994969,-0.01041844,-0.02489205,-0.01077305,-0.07150201,-0.06933938,-0.04483862,-0.10027820,-0.08074112,-0.02099871,-0.03183685,-0.03212068,-0.02104207,-0.00609923,0.00936572,-0.09676167,0.02205937,-0.18110281,-0.16513801,-0.08881258,-0.05647884,-0.02828396,-0.00847057,-0.03803443,-0.00297132,-0.09298602,-0.05029819,-0.16916834,-0.16233318,-0.15826006,-0.05388326,-0.04250091,-0.01236151,-0.02198311,0.00360792,-0.04720531,0.08712339,-0.07594196,-0.02935263,-0.16769585,-0.12986027,-0.03786412,-0.00309731,-0.00198003,0.00610336,-0.02284144,-0.03849860,0.09670591,0, 00:00:13.5
137,-0.01484765,-0.07224411,-0.02527874,-0.02784689,-0.01977346,-0.01059346,-0.02526031,-0.01061530,-0.07143822,-0.06941782,-0.04515046,-0.09971124,-0.08065204,-0.02116830,-0.03227667,-0.03294794,-0.02142188,-0.00611651,0.00942278,-0.09683301,0.02232264,-0.18181202,-0.16471855,-0.08849586,-0.05701846,-0.02843458,-0.00867845,-0.03865030,-0.00295997,-0.09291908,-0.05007110,-0.16940477,-0.16340947,-0.15842955,-0.05412050,-0.04286442,-0.01244141,-0.02215230,0.00374993,-0.04702463,0.07885239,-0.07660288,-0.02926603,-0.16806424,-0.12996018,-0.03776038,-0.00310921,-0.00187321,0.00639542,-0.02257076,-0.03875925,0.06429045,0, 00:00:13.6
138,-0.01685680,-0.07161438,-0.02513113,-0.02793576,-0.01956884,-0.01078919,-0.02545991,-0.01047629,-0.07135558,-0.06958593,-0.04603839,-0.09929415,-0.08025976,-0.02059353,-0.03237914,-0.03355689,-0.02158717,-0.00595888,0.00944545,-0.09675361,0.02258780,-0.18199661,-0.16380003,-0.08837877,-0.05746602,-0.02872143,-0.00884968,-0.03924745,-0.00290581,-0.09263808,-0.04996977,-0.16979311,-0.16430648,-0.15851441,-0.05418711,-0.04319536,-0.01250124,-0.02244996,0.00391233,-0.04697548,0.06936528,-0.07726990,-0.02907039,-0.16811982,-0.13002068,-0.03756902,-0.00298947,-0.00182783,0.00665584,-0.02221035,-0.03898975,0.07925879,0, 00:00:13.7
139,-0.01772867,-0.07112940,-0.02532953,-0.02786236,-0.01974378,-0.01102486,-0.02559712,-0.01044198,-0.07130878,-0.06951231,-0.04785530,-0.09908624,-0.07997366,-0.02017515,-0.03245281,-0.03454145,-0.02184319,-0.00588260,0.00950764,-0.09648366,0.02241298,-0.18227857,-0.16317555,-0.08854244,-0.05789322,-0.02907054,-0.00896331,-0.03968570,-0.00281824,-0.09258314,-0.04986757,-0.17020309,-0.16527581,-0.15850098,-0.05431061,-0.04341815,-0.01277404,-0.02287761,0.00412421,-0.04708340,0.08184023,-0.07796068,-0.02903498,-0.16823737,-0.13012615,-0.03750186,-0.00295050,-0.00185060,0.00684446,-0.02195491,-0.03916474,0.09480967,0, 00:00:13.8
140,-0.01828923,-0.07093798,-0.02576694,-0.02804480,-0.01965539,-0.01136315,-0.02576743,-0.01046860,-0.07119983,-0.06961092,-0.04879624,-0.09909678,-0.07969360,-0.02016976,-0.03296076,-0.03517955,-0.02217925,-0.00586757,0.00960958,-0.09630145,0.02281951,-0.18263549,-0.16274142,-0.08870309,-0.05835559,-0.02941914,-0.00907987,-0.04003389,-0.00267674,-0.09306735,-0.04968088,-0.17057115,-0.16622329,-0.15848146,-0.05446010,-0.04363466,-0.01338392,-0.02329067,0.00420123,-0.04720768,0.09229039,-0.07855281,-0.02888145,-0.16835447,-0.13014686,-0.03747011,-0.00283396,-0.00185620,0.00700233,-0.02172737,-0.03937531,0.06666581,0, 00:00:13.9
141,-0.01913175,-0.06989335,-0.02579157,-0.02832918,-0.01956632,-0.01112331,-0.02581285,-0.01055541,-0.07122568,-0.06947604,-0.04960616,-0.09908040,-0.07958782,-0.02014198,-0.03324990,-0.03514734,-0.02247835,-0.00588577,0.00973445,-0.09615493,0.02317698,-0.18306626,-0.16191429,-0.08906732,-0.05877997,-0.02971187,-0.00917932,-0.04035469,-0.00255928,-0.09296914,-0.04959052,-0.17092614,-0.16679889,-0.15845892,-0.05456148,-0.04376382,-0.01396069,-0.02353907,0.00432971,-0.04734164,0.09780324,-0.07890331,-0.02861788,-0.16828382,-0.13013323,-0.03743279,-0.00278298,-0.00187233,0.00716554,-0.02155962,-0.03953728,0.07073145,0, 00:00:14.0
142,-0.01970579,-0.06959619,-0.02610184,-0.02836047,-0.01985039,-0.01111145,-0.02598057,-0.01058726,-0.07110831,-0.06939439,-0.04892324,-0.09893113,-0.07949876,-0.02018072,-0.03359033,-0.03558239,-0.02286286,-0.00602717,0.00986981,-0.09604398,0.02329922,-0.18354608,-0.16137974,-0.08926908,-0.05931817,-0.03000234,-0.00930537,-0.04077231,-0.00245236,-0.09253032,-0.04932167,-0.17115350,-0.16739081,-0.15842241,-0.05465756,-0.04404994,-0.01428431,-0.02378890,0.00442078,-0.04742258,0.09749326,-0.07929001,-0.02850880,-0.16795520,-0.13018325,-0.03734732,-0.00275123,-0.00187192,0.00734019,-0.02138098,-0.03962628,0.10412094,0, 00:00:14.1
143,-0.01907061,-0.06965332,-0.02651743,-0.02839067,-0.01983774,-0.01112640,-0.02633642,-0.01055847,-0.07084086,-0.06874023,-0.05133849,-0.09856682,-0.07910789,-0.02065423,-0.03424445,-0.03612778,-0.02322938,-0.00616218,0.00994586,-0.09599063,0.02317957,-0.18367238,-0.16074201,-0.08920772,-0.05991821,-0.03016991,-0.00948763,-0.04116444,-0.00245920,-0.09236231,-0.04899816,-0.17131861,-0.16786623,-0.15850161,-0.05483667,-0.04444437,-0.01452481,-0.02406437,0.00458872,-0.04729620,0.08643632,-0.07972461,-0.02843015,-0.16813973,-0.13018322,-0.03725802,-0.00264081,-0.00177549,0.00762427,-0.02119488,-0.03974861,0.07821326,0, 00:00:14.2
144,-0.01938313,-0.07028199,-0.02677919,-0.02849624,-0.01983558,-0.01142258,-0.02673151,-0.01042711,-0.07069005,-0.06824334,-0.05237012,-0.09793555,-0.07882114,-0.02086826,-0.03475978,-0.03686140,-0.02339015,-0.00619658,0.00992822,-0.09570857,0.02321031,-0.18379970,-0.16021727,-0.08911701,-0.06043892,-0.03029611,-0.00970020,-0.04178746,-0.00246240,-0.09192216,-0.04883369,-0.17165184,-0.16860363,-0.15849105,-0.05499021,-0.04479924,-0.01449922,-0.02431018,0.00472719,-0.04714471,0.07730327,-0.08021033,-0.02844469,-0.16780500,-0.13008726,-0.03713630,-0.00257861,-0.00166755,0.00793546,-0.02096987,-0.03990078,0.06675187,0, 00:00:14.3
145,-0.02029124,-0.06975422,-0.02697680,-0.02846167,-0.01977543,-0.01145710,-0.02699443,-0.01030979,-0.07050281,-0.06821711,-0.05238724,-0.09745717,-0.07850038,-0.02033794,-0.03494639,-0.03732981,-0.02373135,-0.00604157,0.00990634,-0.09540947,0.02340483,-0.18387973,-0.15989164,-0.08917716,-0.06086478,-0.03055075,-0.00983057,-0.04246101,-0.00237751,-0.09138916,-0.04877184,-0.17181201,-0.16925503,-0.15837878,-0.05500195,-0.04500633,-0.01480982,-0.02457624,0.00489211,-0.04716913,0.07418223,-0.08053153,-0.02829782,-0.16764790,-0.13000034,-0.03705522,-0.00242273,-0.00162921,0.00811864,-0.02073378,-0.04000365,0.09698963,0, 00:00:14.4
146,-0.02077389,-0.06984942,-0.02667431,-0.02823766,-0.01979885,-0.01172838,-0.02715582,-0.01025037,-0.07027721,-0.06801885,-0.05227083,-0.09717695,-0.07819409,-0.01998495,-0.03523144,-0.03801093,-0.02406238,-0.00588105,0.00995709,-0.09523138,0.02337372,-0.18442801,-0.15936428,-0.08954488,-0.06125158,-0.03087404,-0.00993095,-0.04301979,-0.00231883,-0.09133372,-0.04887338,-0.17206024,-0.16975459,-0.15817337,-0.05501970,-0.04534246,-0.01547275,-0.02481551,0.00509827,-0.04730644,0.08096661,-0.08070451,-0.02810043,-0.16705948,-0.12985875,-0.03703378,-0.00237863,-0.00168816,0.00824467,-0.02058776,-0.04008983,0.08028396,0, 00:00:14.5
147,-0.02063051,-0.06893688,-0.02687577,-0.02756301,-0.01988386,-0.01199488,-0.02719416,-0.01025190,-0.07007500,-0.06773382,-0.05223477,-0.09691671,-0.07792126,-0.01991596,-0.03561960,-0.03791904,-0.02438967,-0.00581927,0.01006703,-0.09522942,0.02358131,-0.18465133,-0.15844987,-0.08967778,-0.06172346,-0.03116450,-0.01003993,-0.04351165,-0.00226179,-0.09083886,-0.04878421,-0.17228642,-0.17048120,-0.15782297,-0.05503432,-0.04565333,-0.01619394,-0.02507528,0.00517938,-0.04747313,0.09461090,-0.08110417,-0.02793692,-0.16713548,-0.12966803,-0.03708111,-0.00240148,-0.00170159,0.00830048,-0.02055359,-0.04019534,0.06126319,0, 00:00:14.6
148,-0.02099514,-0.06930064,-0.02628011,-0.02735314,-0.02029568,-0.01216151,-0.02725426,-0.01020051,-0.06991364,-0.06764556,-0.05273496,-0.09683968,-0.07787514,-0.01973605,-0.03603755,-0.03820020,-0.02474408,-0.00579103,0.01017269,-0.09501417,0.02394841,-0.18470399,-0.15799020,-0.08969130,-0.06214921,-0.03147352,-0.01014835,-0.04398124,-0.00220382,-0.09057409,-0.04860909,-0.17250168,-0.17120615,-0.15755369,-0.05500027,-0.04580710,-0.01656972,-0.02538040,0.00525791,-0.04758466,0.09818853,-0.08160937,-0.02764827,-0.16713682,-0.12940776,-0.03704502,-0.00229405,-0.00168218,0.00838707,-0.02041936,-0.04025380,0.09093808,0, 00:00:14.7
149,-0.02181302,-0.06911924,-0.02631754,-0.02769230,-0.02057437,-0.01238753,-0.02749179,-0.01021075,-0.06977975,-0.06728727,-0.05168533,-0.09654949,-0.07744356,-0.02004296,-0.03659616,-0.03874618,-0.02498094,-0.00589915,0.01027328,-0.09474599,0.02442083,-0.18490981,-0.15755761,-0.08970439,-0.06269380,-0.03168147,-0.01027294,-0.04445592,-0.00219232,-0.09078568,-0.04846372,-0.17278986,-0.17219447,-0.15731555,-0.05506214,-0.04605071,-0.01630677,-0.02579539,0.00541897,-0.04756539,0.09591524,-0.08191539,-0.02735426,-0.16761726,-0.12908198,-0.03695720,-0.00219209,-0.00162507,0.00850679,-0.02021941,-0.04031388,0.09567644,0, 00:00:14.8
150,-0.02200378,-0.06934882,-0.02644108,-0.02779302,-0.02061133,-0.01270142,-0.02771006,-0.01008261,-0.06945128,-0.06677756,-0.05244789,-0.09613726,-0.07712138,-0.02056439,-0.03685000,-0.03960415,-0.02506561,-0.00605928,0.01031729,-0.09445626,0.02484640,-0.18526165,-0.15646988,-0.08945814,-0.06314742,-0.03181514,-0.01040537,-0.04505679,-0.00217589,-0.09056511,-0.04828860,-0.17312308,-0.17351064,-0.15706448,-0.05519864,-0.04633006,-0.01639092,-0.02612755,0.00570133,-0.04734127,0.08733066,-0.08219039,-0.02735107,-0.16816440,-0.12877505,-0.03683908,-0.00197870,-0.00150792,0.00878103,-0.01994072,-0.04043486,0.06414837,0, 00:00:14.9
151,-0.02104859,-0.06977233,-0.02623164,-0.02756805,-0.02083216,-0.01310791,-0.02809646,-0.00991580,-0.06918770,-0.06621495,-0.05378309,-0.09561963,-0.07687956,-0.02056164,-0.03727549,-0.04018933,-0.02523704,-0.00605082,0.01030476,-0.09388135,0.02460488,-0.18559733,-0.15583965,-0.08936480,-0.06369389,-0.03193009,-0.01050079,-0.04534420,-0.00215485,-0.08993721,-0.04818492,-0.17328678,-0.17464356,-0.15680853,-0.05529280,-0.04655886,-0.01706203,-0.02625274,0.00597766,-0.04708965,0.07769103,-0.08242348,-0.02742141,-0.16790748,-0.12847644,-0.03666481,-0.00193289,-0.00151017,0.00913697,-0.01956331,-0.04054217,0.08441466,0, 00:00:15.0
152,-0.02024719,-0.07060957,-0.02664295,-0.02703895,-0.02084348,-0.01334012,-0.02836664,-0.00978228,-0.06903067,-0.06564291,-0.05486481,-0.09523251,-0.07682618,-0.02010603,-0.03771274,-0.04061027,-0.02544069,-0.00583475,0.01036605,-0.09341808,0.02470746,-0.18604299,-0.15544116,-0.08939880,-0.06409753,-0.03218443,-0.01053231,-0.04585271,-0.00203624,-0.08957741,-0.04851840,-0.17346174,-0.17553723,-0.15643342,-0.05517470,-0.04659920,-0.01794265,-0.02630275,0.00625246,-0.04705939,0.08063047,-0.08270066,-0.02741913,-0.16785213,-0.12814930,-0.03642425,-0.00185962,-0.00161635,0.00944296,-0.01911899,-0.04063154,0.09709235,0, 00:00:15.1
153,-0.02066969,-0.06920141,-0.02699920,-0.02653412,-0.02077558,-0.01351267,-0.02843408,-0.00976575,-0.06854612,-0.06541689,-0.05469845,-0.09499875,-0.07671360,-0.02000680,-0.03797812,-0.04111316,-0.02549937,-0.00583702,0.01056085,-0.09285878,0.02501406,-0.18647721,-0.15503389,-0.08945893,-0.06458926,-0.03245446,-0.01054954,-0.04628028,-0.00190267,-0.08955457,-0.04843955,-0.17370740,-0.17634556,-0.15606621,-0.05524046,-0.04664852,-0.01837957,-0.02645881,0.00649885,-0.04705648,0.08312476,-0.08299492,-0.02723334,-0.16836946,-0.12794422,-0.03620828,-0.00161571,-0.00167503,0.00978413,-0.01867058,-0.04077322,0.06253722,0, 00:00:15.2
154,-0.02168695,-0.06839851,-0.02706107,-0.02697717,-0.02077433,-0.01375848,-0.02855154,-0.00969729,-0.06815059,-0.06531893,-0.05490562,-0.09476393,-0.07657147,-0.01996936,-0.03808816,-0.04101935,-0.02570729,-0.00589694,0.01072415,-0.09229268,0.02536346,-0.18670318,-0.15395805,-0.08939552,-0.06501541,-0.03269888,-0.01061005,-0.04684013,-0.00184033,-0.08980119,-0.04846373,-0.17420946,-0.17688158,-0.15580378,-0.05539211,-0.04674028,-0.01801194,-0.02684481,0.00663068,-0.04693343,0.09939765,-0.08331216,-0.02703456,-0.16866352,-0.12800583,-0.03610041,-0.00129170,-0.00164853,0.01007536,-0.01839771,-0.04091001,0.07579662,0, 00:00:15.3
155,-0.02150424,-0.06823745,-0.02702257,-0.02730423,-0.02096085,-0.01407285,-0.02882180,-0.00968430,-0.06793513,-0.06473514,-0.05615968,-0.09465048,-0.07631640,-0.01994536,-0.03849182,-0.04112188,-0.02605255,-0.00601334,0.01095895,-0.09182881,0.02550841,-0.18708140,-0.15333806,-0.08928916,-0.06548548,-0.03298718,-0.01066303,-0.04724076,-0.00171483,-0.08910612,-0.04875987,-0.17449185,-0.17799172,-0.15558121,-0.05557219,-0.04692972,-0.01786064,-0.02729478,0.00678765,-0.04679388,0.09918140,-0.08365427,-0.02676658,-0.16830513,-0.12802723,-0.03600491,-0.00090859,-0.00161260,0.01034049,-0.01817875,-0.04099809,0.10148077,0, 00:00:15.4
156,-0.02035511,-0.06663629,-0.02672283,-0.02744507,-0.02107831,-0.01421509,-0.02901505,-0.00966186,-0.06753476,-0.06424044,-0.05690535,-0.09445044,-0.07615388,-0.02030004,-0.03890384,-0.04151940,-0.02639294,-0.00631245,0.01116945,-0.09146052,0.02582208,-0.18760990,-0.15302593,-0.08912287,-0.06583717,-0.03322538,-0.01069420,-0.04775139,-0.00166008,-0.08839225,-0.04881073,-0.17478187,-0.17855261,-0.15545455,-0.05576995,-0.04708383,-0.01843401,-0.02767516,0.00701524,-0.04657309,0.09077580,-0.08409052,-0.02684949,-0.16832048,-0.12802853,-0.03590488,-0.00077126,-0.00161101,0.01064344,-0.01790005,-0.04111573,0.07687648,0, 00:00:15.5
157,-0.02061183,-0.06629386,-0.02726311,-0.02740821,-0.02114205,-0.01442058,-0.02928635,-0.00955768,-0.06720565,-0.06379732,-0.05808195,-0.09404834,-0.07573586,-0.02071857,-0.03957214,-0.04223879,-0.02673135,-0.00654725,0.01125775,-0.09085356,0.02621447,-0.18750814,-0.15229911,-0.08887392,-0.06639972,-0.03333162,-0.01075656,-0.04822391,-0.00161196,-0.08823863,-0.04899269,-0.17502984,-0.17922963,-0.15533990,-0.05607065,-0.04707799,-0.01945518,-0.02777245,0.00726194,-0.04618649,0.08159140,-0.08441697,-0.02692500,-0.16899103,-0.12810203,-0.03575098,-0.00061926,-0.00159232,0.01098278,-0.01762883,-0.04123062,0.07019695,0, 00:00:15.6
158,-0.01992926,-0.06556011,-0.02747723,-0.02751955,-0.02143649,-0.01495776,-0.02954611,-0.00938468,-0.06700736,-0.06313369,-0.05734142,-0.09347062,-0.07570111,-0.02067782,-0.03996131,-0.04267275,-0.02700124,-0.00653787,0.01129136,-0.09004769,0.02640509,-0.18751551,-0.15166694,-0.08858201,-0.06698833,-0.03345845,-0.01081024,-0.04844727,-0.00149081,-0.08791173,-0.04893970,-0.17518200,-0.18001160,-0.15511201,-0.05630732,-0.04698123,-0.01987274,-0.02777709,0.00749255,-0.04585784,0.07533240,-0.08478299,-0.02704384,-0.16888610,-0.12814948,-0.03564950,-0.00043595,-0.00155268,0.01130028,-0.01733698,-0.04131452,0.10045990,0, 00:00:15.7
159,-0.01860763,-0.06535707,-0.02808250,-0.02757332,-0.02146555,-0.01514486,-0.02983950,-0.00932207,-0.06678139,-0.06250545,-0.05638303,-0.09319090,-0.07545231,-0.02020303,-0.04024132,-0.04283905,-0.02723660,-0.00639663,0.01146384,-0.08949746,0.02708612,-0.18796298,-0.15104732,-0.08861871,-0.06741560,-0.03365467,-0.01083096,-0.04873271,-0.00136084,-0.08745749,-0.04929908,-0.17531593,-0.18037210,-0.15484662,-0.05644118,-0.04715010,-0.01959891,-0.02796907,0.00783701,-0.04574898,0.07714874,-0.08502223,-0.02698476,-0.16912593,-0.12816209,-0.03559943,-0.00028411,-0.00151865,0.01148276,-0.01715532,-0.04143517,0.08131364,0, 00:00:15.8
160,-0.01931497,-0.06468482,-0.02814715,-0.02781687,-0.02171451,-0.01514585,-0.03008933,-0.00927056,-0.06633753,-0.06224490,-0.05631308,-0.09301429,-0.07503242,-0.02012078,-0.04057270,-0.04358571,-0.02723990,-0.00642599,0.01168527,-0.08886291,0.02789859,-0.18834382,-0.15000825,-0.08845578,-0.06779467,-0.03389486,-0.01086179,-0.04920886,-0.00128077,-0.08732060,-0.04933052,-0.17556483,-0.18073145,-0.15463755,-0.05660474,-0.04721043,-0.01945246,-0.02830830,0.00802397,-0.04576644,0.08407168,-0.08496810,-0.02694400,-0.16949815,-0.12818082,-0.03561993,-0.00008675,-0.00145026,0.01154723,-0.01700149,-0.04157098,0.06137116,0, 00:00:15.9
161,-0.01971662,-0.06424677,-0.02776041,-0.02776755,-0.02171777,-0.01533418,-0.03021294,-0.00927486,-0.06603669,-0.06219382,-0.05707934,-0.09295714,-0.07452808,-0.02021431,-0.04086646,-0.04428180,-0.02730794,-0.00654891,0.01193524,-0.08819358,0.02830894,-0.18828931,-0.14934088,-0.08848009,-0.06827240,-0.03412181,-0.01088403,-0.04965710,-0.00123430,-0.08723918,-0.04939260,-0.17585516,-0.18122649,-0.15443923,-0.05673853,-0.04735361,-0.01985274,-0.02867925,0.00809168,-0.04578792,0.09731294,-0.08506043,-0.02676274,-0.16986294,-0.12814589,-0.03560370,-0.00003696,-0.00140865,0.01165836,-0.01683697,-0.04164210,0.09767212,0, 00:00:16.0
162,-0.02133231,-0.06285438,-0.02791550,-0.02791296,-0.02177418,-0.01561574,-0.03030107,-0.00930364,-0.06561017,-0.06228227,-0.05727859,-0.09278654,-0.07433783,-0.02038776,-0.04100560,-0.04482805,-0.02748357,-0.00662267,0.01212498,-0.08761097,0.02871738,-0.18859968,-0.14895293,-0.08854544,-0.06873295,-0.03432915,-0.01088597,-0.04992705,-0.00121282,-0.08701389,-0.04941399,-0.17615908,-0.18212035,-0.15416129,-0.05683276,-0.04736102,-0.02071228,-0.02892462,0.00821125,-0.04578330,0.09372349,-0.08523102,-0.02657380,-0.17018019,-0.12814052,-0.03556865,0.00014053,-0.00137588,0.01181357,-0.01657421,-0.04171372,0.09184338,0, 00:00:16.1
163,-0.02198783,-0.06256516,-0.02853040,-0.02811322,-0.02183657,-0.01602842,-0.03044516,-0.00930227,-0.06512778,-0.06174204,-0.05791729,-0.09252283,-0.07406098,-0.02099521,-0.04132707,-0.04536137,-0.02756695,-0.00682308,0.01228102,-0.08691238,0.02908079,-0.18903473,-0.14831170,-0.08832202,-0.06928790,-0.03451888,-0.01094654,-0.05015421,-0.00117490,-0.08662769,-0.04901251,-0.17630385,-0.18294062,-0.15384500,-0.05702993,-0.04748214,-0.02120914,-0.02908031,0.00835256,-0.04557825,0.08671090,-0.08528191,-0.02663818,-0.17007440,-0.12807247,-0.03543435,0.00028134,-0.00130194,0.01207550,-0.01628268,-0.04181998,0.06790061,0, 00:00:16.2
164,-0.02099053,-0.06291871,-0.02876613,-0.02815961,-0.02192422,-0.01614327,-0.03060435,-0.00918172,-0.06480227,-0.06124661,-0.05808131,-0.09187511,-0.07361006,-0.02147204,-0.04167821,-0.04596569,-0.02781634,-0.00697469,0.01241660,-0.08639850,0.02927820,-0.18926096,-0.14729509,-0.08790921,-0.06986214,-0.03457361,-0.01106871,-0.05057717,-0.00118218,-0.08641658,-0.04878775,-0.17646168,-0.18345635,-0.15349187,-0.05728196,-0.04755101,-0.02117678,-0.02915709,0.00844507,-0.04525289,0.07628306,-0.08529926,-0.02670051,-0.17012048,-0.12804905,-0.03532187,0.00039086,-0.00114105,0.01240298,-0.01594847,-0.04188656,0.09158655,0, 00:00:16.3
165,-0.02043404,-0.06268681,-0.02890731,-0.02823486,-0.02214248,-0.01641964,-0.03089910,-0.00908134,-0.06437099,-0.06087637,-0.05832335,-0.09117721,-0.07329304,-0.02136370,-0.04194596,-0.04634185,-0.02806488,-0.00707237,0.01253225,-0.08584377,0.02981064,-0.18974727,-0.14696778,-0.08751984,-0.07032244,-0.03465909,-0.01115554,-0.05118979,-0.00110926,-0.08664794,-0.04885597,-0.17650938,-0.18398297,-0.15310529,-0.05745285,-0.04747885,-0.02113508,-0.02933298,0.00861326,-0.04505122,0.07631154,-0.08540232,-0.02673883,-0.17026611,-0.12800671,-0.03523995,0.00057006,-0.00097212,0.01262091,-0.01564482,-0.04195232,0.10014519,0, 00:00:16.4
166,-0.01970185,-0.06175975,-0.02886434,-0.02860817,-0.02212713,-0.01677159,-0.03121306,-0.00902189,-0.06400377,-0.06045221,-0.05864979,-0.09077110,-0.07295883,-0.02099686,-0.04214094,-0.04683319,-0.02812844,-0.00698804,0.01275190,-0.08539452,0.03032693,-0.19022186,-0.14622733,-0.08733342,-0.07071362,-0.03483471,-0.01117837,-0.05164946,-0.00100107,-0.08714987,-0.04894020,-0.17666967,-0.18468723,-0.15257838,-0.05752869,-0.04737496,-0.02123703,-0.02961540,0.00878909,-0.04509987,0.07591719,-0.08546741,-0.02649693,-0.17081819,-0.12799884,-0.03517237,0.00070759,-0.00089046,0.01273955,-0.01537501,-0.04205324,0.06628125,0, 00:00:16.5
167,-0.02022521,-0.06046053,-0.02927469,-0.02884353,-0.02197302,-0.01716105,-0.03127161,-0.00898932,-0.06363278,-0.05994722,-0.05940347,-0.09053802,-0.07240201,-0.02107202,-0.04256599,-0.04727832,-0.02831199,-0.00705480,0.01297627,-0.08490240,0.03073186,-0.19030935,-0.14531735,-0.08705846,-0.07118027,-0.03504902,-0.01118419,-0.05190998,-0.00096895,-0.08745912,-0.04884093,-0.17683843,-0.18525055,-0.15198433,-0.05769364,-0.04756329,-0.02164916,-0.02990087,0.00897024,-0.04523004,0.09075999,-0.08559883,-0.02625944,-0.17100279,-0.12786333,-0.03511176,0.00095290,-0.00082361,0.01288451,-0.01513532,-0.04212520,0.08060153,0, 00:00:16.6
168,-0.01993432,-0.05967150,-0.02915005,-0.02859376,-0.02233794,-0.01736974,-0.03136521,-0.00902358,-0.06332318,-0.05969934,-0.05879803,-0.09043315,-0.07190868,-0.02135483,-0.04318926,-0.04764543,-0.02854231,-0.00715650,0.01326502,-0.08439243,0.03103004,-0.19012940,-0.14454497,-0.08679020,-0.07170276,-0.03527854,-0.01122971,-0.05217219,-0.00100106,-0.08734399,-0.04882339,-0.17689703,-0.18570998,-0.15139312,-0.05793477,-0.04766808,-0.02210745,-0.03011968,0.00916518,-0.04540624,0.09890154,-0.08568697,-0.02605936,-0.17093942,-0.12781653,-0.03510778,0.00108350,-0.00072385,0.01298558,-0.01487548,-0.04212559,0.10614921,0, 00:00:16.7
169,-0.02098323,-0.05849069,-0.02957984,-0.02906910,-0.02248557,-0.01749328,-0.03154627,-0.00915647,-0.06292694,-0.05910134,-0.05912934,-0.09028442,-0.07132939,-0.02165402,-0.04346261,-0.04763138,-0.02870532,-0.00741462,0.01353547,-0.08372765,0.03121231,-0.19010204,-0.14346662,-0.08638059,-0.07227792,-0.03550047,-0.01136728,-0.05238997,-0.00109923,-0.08716293,-0.04863687,-0.17692864,-0.18592353,-0.15091163,-0.05816825,-0.04787849,-0.02243110,-0.03034846,0.00951497,-0.04552850,0.08840542,-0.08591972,-0.02583154,-0.17116864,-0.12783389,-0.03520100,0.00113336,-0.00054541,0.01285482,-0.01435948,-0.04215011,0.07552845,0, 00:00:16.8
170,-0.02364262,-0.05815947,-0.03021894,-0.02927129,-0.02246928,-0.01792134,-0.03178202,-0.00926571,-0.06250367,-0.05876077,-0.05776482,-0.08968773,-0.07110040,-0.02242877,-0.04356584,-0.04810229,-0.02881357,-0.00765480,0.01370322,-0.08295617,0.03137435,-0.19011849,-0.14276239,-0.08579328,-0.07276626,-0.03563249,-0.01150023,-0.05271899,-0.00113759,-0.08641088,-0.04847252,-0.17701437,-0.18629232,-0.15055509,-0.05848494,-0.04807437,-0.02245253,-0.03056460,0.00992633,-0.04544109,0.08213471,-0.08610059,-0.02581847,-0.17131752,-0.12784317,-0.03516045,0.00128919,-0.00026975,0.01282014,-0.01376854,-0.04219409,0.07919171,0, 00:00:16.9
171,-0.02353131,-0.05785892,-0.03031072,-0.02900755,-0.02259185,-0.01834835,-0.03204507,-0.00926593,-0.06198951,-0.05806343,-0.05683883,-0.08904070,-0.07082397,-0.02280488,-0.04363707,-0.04869074,-0.02912802,-0.00785260,0.01382375,-0.08229984,0.03111697,-0.18996134,-0.14200091,-0.08532126,-0.07317057,-0.03567090,-0.01163516,-0.05303006,-0.00113350,-0.08580709,-0.04832633,-0.17714106,-0.18656801,-0.15015788,-0.05873412,-0.04811963,-0.02232528,-0.03074810,0.01031187,-0.04526222,0.07310728,-0.08615480,-0.02585602,-0.17090446,-0.12780987,-0.03506029,0.00142670,0.00000428,0.01288637,-0.01313993,-0.04220603,0.10769381,0, 00:00:17.0
172,-0.02343045,-0.05785587,-0.03025986,-0.02928915,-0.02261252,-0.01844185,-0.03227442,-0.00918877,-0.06170290,-0.05755202,-0.05549806,-0.08837123,-0.07048254,-0.02264257,-0.04392067,-0.04932895,-0.02934977,-0.00783542,0.01401165,-0.08178364,0.03120870,-0.18966067,-0.14074910,-0.08500178,-0.07341544,-0.03576498,-0.01172487,-0.05333608,-0.00109675,-0.08509484,-0.04817473,-0.17718981,-0.18648452,-0.14962317,-0.05888133,-0.04803389,-0.02250519,-0.03080703,0.01077308,-0.04522481,0.07427099,-0.08633831,-0.02577787,-0.17110299,-0.12779257,-0.03493313,0.00165821,0.00019688,0.01290798,-0.01254155,-0.04227110,0.08361097,0, 00:00:17.1
173,-0.02391051,-0.05732151,-0.03018308,-0.02947038,-0.02277971,-0.01883751,-0.03235138,-0.00923823,-0.06128411,-0.05741659,-0.05617774,-0.08817608,-0.07007672,-0.02240196,-0.04417969,-0.04976425,-0.02972423,-0.00779523,0.01422599,-0.08112881,0.03143656,-0.18974417,-0.13981792,-0.08483686,-0.07383049,-0.03594105,-0.01172742,-0.05392598,-0.00109911,-0.08443138,-0.04822400,-0.17722465,-0.18692873,-0.14908798,-0.05903238,-0.04803449,-0.02296666,-0.03085701,0.01123427,-0.04536834,0.07780990,-0.08650509,-0.02568673,-0.17092407,-0.12778005,-0.03481528,0.00177908,0.00027781,0.01284137,-0.01198414,-0.04235779,0.06853645,0, 00:00:17.2
174,-0.02411702,-0.05737475,-0.03081529,-0.02945843,-0.02276561,-0.01893558,-0.03245358,-0.00930858,-0.06081258,-0.05700387,-0.05695311,-0.08782650,-0.06985107,-0.02249456,-0.04419225,-0.04985543,-0.03002790,-0.00786548,0.01443868,-0.08033331,0.03161848,-0.18974431,-0.13888270,-0.08461858,-0.07423906,-0.03615627,-0.01176147,-0.05414630,-0.00113380,-0.08386786,-0.04807711,-0.17722902,-0.18707363,-0.14852591,-0.05927886,-0.04804480,-0.02352130,-0.03095167,0.01171115,-0.04555259,0.09212379,-0.08655279,-0.02546029,-0.17066610,-0.12786211,-0.03470653,0.00189200,0.00037636,0.01281559,-0.01144300,-0.04238076,0.10112754,0, 00:00:17.3
175,-0.02645649,-0.05682051,-0.03156811,-0.02923806,-0.02271788,-0.01907116,-0.03256043,-0.00940351,-0.06038848,-0.05666327,-0.05759281,-0.08768848,-0.06963337,-0.02263874,-0.04401933,-0.05041252,-0.03013094,-0.00805969,0.01464384,-0.07982177,0.03188412,-0.19005691,-0.13800685,-0.08438469,-0.07458734,-0.03635032,-0.01180380,-0.05427958,-0.00116033,-0.08303090,-0.04823233,-0.17728971,-0.18703319,-0.14805993,-0.05950639,-0.04803673,-0.02361709,-0.03118257,0.01218754,-0.04572945,0.09695666,-0.08674983,-0.02520060,-0.17094658,-0.12798110,-0.03457024,0.00207773,0.00052457,0.01287221,-0.01089177,-0.04241536,0.09419194,0, 00:00:17.4
176,-0.02806969,-0.05654180,-0.03253236,-0.02941280,-0.02261653,-0.01928692,-0.03257582,-0.00953907,-0.05999821,-0.05635382,-0.05699019,-0.08743739,-0.06934988,-0.02315807,-0.04406610,-0.05087103,-0.03030994,-0.00828106,0.01491231,-0.07901560,0.03259991,-0.19016290,-0.13664185,-0.08389709,-0.07501577,-0.03647009,-0.01185938,-0.05448881,-0.00115896,-0.08267210,-0.04830987,-0.17740503,-0.18755703,-0.14765602,-0.05966621,-0.04797567,-0.02317020,-0.03140736,0.01254096,-0.04581384,0.08390127,-0.08706048,-0.02514206,-0.17154190,-0.12811300,-0.03448588,0.00233967,0.00074855,0.01299706,-0.01040510,-0.04248581,0.06982245,0, 00:00:17.5
177,-0.02906057,-0.05643483,-0.03288732,-0.02962587,-0.02259437,-0.01970389,-0.03288785,-0.00954226,-0.05949072,-0.05586559,-0.05765798,-0.08692051,-0.06894665,-0.02403900,-0.04438018,-0.05157342,-0.03048236,-0.00859161,0.01518147,-0.07846631,0.03315140,-0.19004272,-0.13537513,-0.08326526,-0.07545258,-0.03649238,-0.01193447,-0.05481754,-0.00117163,-0.08195391,-0.04817028,-0.17735048,-0.18806776,-0.14729370,-0.05996369,-0.04793849,-0.02321699,-0.03152405,0.01295401,-0.04569937,0.07679290,-0.08712201,-0.02526907,-0.17220588,-0.12823656,-0.03431169,0.00263743,0.00100603,0.01320376,-0.00995369,-0.04249841,0.10197081,0, 00:00:17.6
178,-0.02951743,-0.05636026,-0.03234893,-0.02968576,-0.02277162,-0.02014407,-0.03307832,-0.00949314,-0.05907253,-0.05554088,-0.05801732,-0.08639167,-0.06859152,-0.02453567,-0.04446857,-0.05171341,-0.03056187,-0.00875125,0.01540072,-0.07785060,0.03331773,-0.18994009,-0.13415220,-0.08286969,-0.07583591,-0.03650776,-0.01201787,-0.05494453,-0.00118361,-0.08063406,-0.04801328,-0.17735031,-0.18838486,-0.14687957,-0.06025705,-0.04781574,-0.02382122,-0.03147843,0.01338034,-0.04554974,0.06991882,-0.08717915,-0.02543855,-0.17244974,-0.12839094,-0.03408625,0.00267613,0.00117664,0.01341372,-0.00949648,-0.04252030,0.10300096,0, 00:00:17.7
179,-0.03000505,-0.05650990,-0.03182648,-0.02946998,-0.02275848,-0.02053137,-0.03335122,-0.00941394,-0.05871681,-0.05517507,-0.05708917,-0.08569949,-0.06846830,-0.02444173,-0.04442193,-0.05225505,-0.03061096,-0.00882332,0.01557437,-0.07695760,0.03373297,-0.18979432,-0.13331121,-0.08240433,-0.07618615,-0.03655123,-0.01203186,-0.05518857,-0.00115434,-0.08032269,-0.04786566,-0.17737374,-0.18833160,-0.14645179,-0.06038688,-0.04764060,-0.02449170,-0.03130910,0.01399061,-0.04549295,0.06720610,-0.08708441,-0.02548412,-0.17268601,-0.12856817,-0.03390853,0.00277995,0.00127581,0.01362231,-0.00905303,-0.04260726,0.06970292,0, 00:00:17.8
180,-0.03081539,-0.05550157,-0.03114227,-0.02940924,-0.02301458,-0.02069062,-0.03354149,-0.00947876,-0.05831591,-0.05513607,-0.05682669,-0.08521841,-0.06819627,-0.02435495,-0.04451822,-0.05257654,-0.03076157,-0.00888910,0.01576561,-0.07627705,0.03381625,-0.18938056,-0.13224739,-0.08217676,-0.07644957,-0.03671825,-0.01200865,-0.05534015,-0.00109590,-0.08001749,-0.04794814,-0.17742111,-0.18851127,-0.14602348,-0.06052240,-0.04747482,-0.02459491,-0.03123422,0.01444216,-0.04554412,0.07927085,-0.08692926,-0.02522156,-0.17288637,-0.12870078,-0.03370254,0.00297871,0.00135280,0.01376126,-0.00861266,-0.04263249,0.08878031,0, 00:00:17.9
181,-0.03048763,-0.05538440,-0.03094806,-0.02936536,-0.02314478,-0.02117496,-0.03372254,-0.00954837,-0.05784020,-0.05480663,-0.05668420,-0.08500181,-0.06793299,-0.02461210,-0.04493450,-0.05305561,-0.03085830,-0.00897254,0.01601110,-0.07566594,0.03409415,-0.18948421,-0.13155840,-0.08197705,-0.07689576,-0.03693898,-0.01206386,-0.05545577,-0.00104636,-0.07950047,-0.04790079,-0.17739831,-0.18814056,-0.14557104,-0.06071207,-0.04730798,-0.02404321,-0.03135310,0.01474470,-0.04557456,0.08895251,-0.08669324,-0.02497667,-0.17399088,-0.12878023,-0.03355848,0.00322851,0.00151311,0.01393096,-0.00825533,-0.04258047,0.10631114,0, 00:00:18.0
182,-0.02912522,-0.05601961,-0.03214172,-0.02947080,-0.02312417,-0.02126149,-0.03383152,-0.00965281,-0.05734953,-0.05453358,-0.05602055,-0.08491316,-0.06742952,-0.02497508,-0.04494602,-0.05353089,-0.03107252,-0.00914756,0.01623389,-0.07518275,0.03448708,-0.18975706,-0.13078813,-0.08179848,-0.07717092,-0.03711591,-0.01210195,-0.05552556,-0.00105944,-0.07978186,-0.04771198,-0.17736827,-0.18760803,-0.14510614,-0.06086588,-0.04727848,-0.02388965,-0.03158760,0.01516845,-0.04561347,0.08979884,-0.08627781,-0.02448644,-0.17443614,-0.12880370,-0.03342989,0.00350117,0.00166288,0.01412299,-0.00793905,-0.04258052,0.07793489,0, 00:00:18.1
