Header
File Version,1.24
Patient Information
ID,10014
Name,
Comment,DELBOX,,
Birth Date,0000/00/26
Age, 52y
Sex,Male
Analyze Information
AnalyzeMode,Integral
Pre Time[s],5.0
Post Time[s],0.0
Recovery Time[s],40.0
Base Time[s],5
Fitting Degree,0
HPF[Hz],No Filter
LPF[Hz],No Filter
Moving Average[s],5.0
Measure Information
Date,2003/01/13 00:42
Probe Type,adult
Mode,3x11
Wave[nm],695,830
Wave Length,CH1(703.0),CH1(827.2),CH2(703.0),CH2(826.5),CH3(703.0),CH3(826.5),CH4(703.0),CH4(827.2),CH5(703.0),CH5(827.2),CH6(703.0),CH6(827.2),CH7(703.0),CH7(827.2),CH8(703.7),CH8(827.2),CH9(703.7),CH9(827.2),CH10(704.5),CH10(827.9),CH11(703.0),CH11(827.2),CH12(703.7),CH12(827.2),CH13(703.0),CH13(826.5),CH14(703.7),CH14(827.2),CH15(703.0),CH15(827.2),CH16(703.0),CH16(827.9),CH17(703.0),CH17(827.2),CH18(704.5),CH18(826.5),CH19(703.7),CH19(827.2),CH20(704.5),CH20(826.5),CH21(704.5),CH21(827.9),CH22(703.7),CH22(827.2),CH23(703.7),CH23(827.2),CH24(703.7),CH24(827.2),CH25(703.7),CH25(827.2),CH26(703.0),CH26(827.9),CH27(703.0),CH27(827.9),CH28(704.5),CH28(826.5),CH29(704.5),CH29(826.5),CH30(704.5),CH30(826.5),CH31(704.5),CH31(826.5),CH32(703.7),CH32(826.5),CH33(703.7),CH33(827.2),CH34(704.5),CH34(826.5),CH35(703.7),CH35(827.2),CH36(703.0),CH36(826.5),CH37(703.0),CH37(827.9),CH38(704.5),CH38(826.5),CH39(704.5),CH39(826.5),CH40(703.7),CH40(827.2),CH41(704.5),CH41(826.5),CH42(704.5),CH42(825.7),CH43(703.7),CH43(826.5),CH44(704.5),CH44(826.5),CH45(704.5),CH45(826.5),CH46(703.0),CH46(826.5),CH47(703.0),CH47(826.5),CH48(704.5),CH48(826.5),CH49(704.5),CH49(826.5),CH50(703.7),CH50(827.2),CH51(703.7),CH51(827.2),CH52(704.5),CH52(825.7)
Analog Gain,15.13725500,15.13725500,15.13725500,15.13725500,6.58823500,6.58823500,6.58823500,6.58823500,16.07843100,16.07843100,16.07843100,16.07843100,4.54902000,4.54902000,4.54902000,4.54902000,3.92156900,3.92156900,3.92156900,3.92156900,15.84313700,15.84313700,15.13725500,15.13725500,3.13725500,3.13725500,6.58823500,6.58823500,4.78431400,4.78431400,16.07843100,16.07843100,3.84313700,3.84313700,4.54902000,4.54902000,2.66666700,2.66666700,3.92156900,3.92156900,18.66666700,18.66666700,15.84313700,15.84313700,3.13725500,3.13725500,3.13725500,3.13725500,4.78431400,4.78431400,4.78431400,4.78431400,3.84313700,3.84313700,3.84313700,3.84313700,2.66666700,2.66666700,2.66666700,2.66666700,18.66666700,18.66666700,15.84313700,15.84313700,11.92156900,11.92156900,3.13725500,3.13725500,4.07843100,4.07843100,4.78431400,4.78431400,2.66666700,2.66666700,3.84313700,3.84313700,3.76470600,3.76470600,2.66666700,2.66666700,8.70588200,8.70588200,18.66666700,18.66666700,11.92156900,11.92156900,11.92156900,11.92156900,4.07843100,4.07843100,4.07843100,4.07843100,2.66666700,2.66666700,2.66666700,2.66666700,3.76470600,3.76470600,3.76470600,3.76470600,8.70588200,8.70588200,8.70588200,8.70588200
Digital Gain,35.78000000,8.73000000,17.17000000,4.73000000,11.06000000,4.52000000,9.72000000,3.77000000,8.18000000,2.38000000,14.13000000,4.73000000,13.98000000,6.47000000,4.60000000,2.23000000,6.08000000,2.45000000,89.15000000,17.80000000,14.96000000,4.29000000,8.41000000,2.25000000,14.09000000,5.91000000,11.94000000,5.50000000,23.73000000,9.72000000,16.02000000,7.67000000,47.49000000,22.19000000,43.71000000,23.36000000,4.88000000,2.76000000,18.06000000,7.91000000,25.21000000,5.05000000,12.47000000,3.71000000,29.18000000,8.12000000,15.48000000,7.46000000,14.58000000,5.96000000,8.85000000,5.78000000,6.67000000,4.51000000,7.63000000,3.42000000,32.70000000,15.52000000,18.37000000,9.87000000,7.47000000,2.60000000,9.84000000,4.22000000,13.10000000,3.04000000,9.74000000,4.85000000,12.54000000,6.48000000,7.26000000,4.07000000,5.65000000,5.09000000,8.38000000,6.19000000,29.52000000,15.53000000,29.97000000,17.64000000,12.65000000,5.60000000,33.07000000,7.69000000,11.21000000,4.24000000,24.11000000,9.67000000,7.28000000,4.41000000,6.08000000,4.06000000,4.94000000,4.29000000,9.51000000,8.08000000,4.71000000,4.54000000,5.00000000,3.57000000,5.47000000,3.07000000,32.37000000,11.62000000
Sampling Period[s],0.1
StimType,EVENT
Stim Time[s]
F1,15,F2,15,F3,15,F4,15,F5,15,F6,15,F7,15,F8,15,F9,15,M,15
Repeat Count,0
Exception Ch,0,0,0,0,0,0,0,0,0,0,0,0,0,0,0,0,0,0,0,0,0,0,0,0,0,0,0,0,0,0,0,0,0,0,0,0,0,0,0,0,0,0,0,0,0,0,0,0,0,0,0,0






Data
Probe1(Deoxy),CH1,CH2,CH3,CH4,CH5,CH6,CH7,CH8,CH9,CH10,CH11,CH12,CH13,CH14,CH15,CH16,CH17,CH18,CH19,CH20,CH21,CH22,CH23,CH24,CH25,CH26,CH27,CH28,CH29,CH30,CH31,CH32,CH33,CH34,CH35,CH36,CH37,CH38,CH39,CH40,CH41,CH42,CH43,CH44,CH45,CH46,CH47,CH48,CH49,CH50,CH51,CH52,Mark,Time,BodyMovement,RemovalMark,PreScan
1,0.00233612,0.00047374,-0.00091390,-0.00022764,-0.00147915,0.00100979,-0.00482816,-0.00304467,0.01281792,0.00085518,0.00070609,-0.00525341,0.00078633,-0.00170315,-0.00066837,-0.00394872,0.00168368,-0.00879566,0.00773135,-0.00725431,-0.01331616,-0.01213316,-0.00601993,0.00017172,-0.00081523,-0.00703688,-0.01270697,-0.00494082,-0.00324759,-0.00014752,-0.02673767,-0.00442283,-0.02095654,0.00054964,-0.00308478,-0.00265057,-0.00742403,0.00067746,-0.00201214,-0.00902656,-0.02268183,-0.02049926,0.00328088,-0.02005292,-0.00212392,-0.00044138,-0.00684925,-0.00394122,-0.00316337,-0.00267840,-0.00511366,0.00876516,0, 00:00:00.0
2,0.00207229,0.00054615,-0.00093763,-0.00023286,-0.00133217,0.00086824,-0.00455539,-0.00326942,0.01098658,0.00046428,0.00105013,-0.00515898,0.00070596,-0.00162355,-0.00071958,-0.00370371,0.00141048,-0.00897503,0.00664706,-0.00694003,-0.01262830,-0.01197025,-0.00593747,0.00059323,-0.00081534,-0.00663372,-0.01193440,-0.00454291,-0.00301685,-0.00076520,-0.02606200,-0.00443147,-0.02086275,0.00025889,-0.00280057,-0.00243909,-0.00702936,0.00006811,-0.00214046,-0.00859513,-0.02256621,-0.01977935,0.00230658,-0.01949980,-0.00232471,-0.00040242,-0.00639262,-0.00410398,-0.00305672,-0.00253978,-0.00540004,0.00803034,0, 00:00:00.1
3,0.00200453,0.00050212,-0.00093220,-0.00024662,-0.00113795,0.00096094,-0.00424972,-0.00340552,0.00939628,0.00003595,0.00097114,-0.00507056,0.00056203,-0.00169475,-0.00057894,-0.00399066,0.00131523,-0.00921973,0.00540625,-0.00696399,-0.01220479,-0.01162941,-0.00574876,0.00050266,-0.00088575,-0.00613501,-0.01105626,-0.00420062,-0.00318272,-0.00166932,-0.02508417,-0.00464144,-0.02070358,-0.00001265,-0.00266260,-0.00235976,-0.00667454,-0.00035887,-0.00244183,-0.00864847,-0.02228670,-0.01932164,0.00165900,-0.01922521,-0.00263119,-0.00034780,-0.00596793,-0.00418394,-0.00287431,-0.00237024,-0.00556813,0.00746386,0, 00:00:00.2
4,0.00251532,0.00045762,-0.00084987,-0.00031069,-0.00090940,0.00078534,-0.00401134,-0.00347353,0.00792283,-0.00037961,0.00096855,-0.00492561,0.00041309,-0.00171308,-0.00067346,-0.00402106,0.00117364,-0.00908384,0.00428861,-0.00691405,-0.01149387,-0.01137711,-0.00573619,0.00026185,-0.00097256,-0.00561644,-0.01023777,-0.00390196,-0.00328613,-0.00236540,-0.02409457,-0.00488499,-0.02025135,-0.00044055,-0.00266631,-0.00222011,-0.00631191,-0.00066800,-0.00220871,-0.00867321,-0.02198018,-0.01913474,0.00140978,-0.01863424,-0.00311674,-0.00019514,-0.00556662,-0.00418831,-0.00261282,-0.00223356,-0.00560022,0.00754238,0, 00:00:00.3
5,0.00272458,0.00050633,-0.00079747,-0.00029821,-0.00075116,0.00055743,-0.00368368,-0.00348749,0.00675683,-0.00032654,0.00109432,-0.00472630,0.00047053,-0.00144185,-0.00068761,-0.00373556,0.00085531,-0.00857789,0.00346759,-0.00658461,-0.01067954,-0.01127840,-0.00581424,0.00054576,-0.00092511,-0.00514351,-0.00940058,-0.00359057,-0.00309315,-0.00265449,-0.02323235,-0.00477067,-0.01953192,-0.00057448,-0.00236894,-0.00194109,-0.00589198,-0.00091714,-0.00222669,-0.00841610,-0.02154150,-0.01845148,0.00102289,-0.01795621,-0.00329925,-0.00021806,-0.00511604,-0.00408925,-0.00241182,-0.00213908,-0.00577755,0.00707668,0, 00:00:00.4
6,0.00284907,0.00046816,-0.00083406,-0.00021422,-0.00064327,0.00064953,-0.00340250,-0.00343729,0.00573175,-0.00009634,0.00111608,-0.00458166,0.00051410,-0.00123948,-0.00062939,-0.00323435,0.00082978,-0.00785773,0.00260109,-0.00634525,-0.00996778,-0.01096416,-0.00573305,0.00064813,-0.00070680,-0.00477698,-0.00858657,-0.00336616,-0.00314398,-0.00295948,-0.02232749,-0.00476998,-0.01901283,-0.00077831,-0.00214236,-0.00166457,-0.00546508,-0.00109586,-0.00210444,-0.00830291,-0.02125961,-0.01755090,0.00061287,-0.01727156,-0.00342307,-0.00020761,-0.00468802,-0.00400104,-0.00222788,-0.00199951,-0.00581766,0.00670469,0, 00:00:00.5
7,0.00284105,0.00070379,-0.00088790,-0.00006168,-0.00055453,0.00072407,-0.00310666,-0.00334517,0.00483373,-0.00032349,0.00101365,-0.00430427,0.00050726,-0.00116187,-0.00059353,-0.00321979,0.00083389,-0.00737395,0.00176425,-0.00611291,-0.00909386,-0.01055304,-0.00559024,0.00065145,-0.00054533,-0.00441604,-0.00789404,-0.00318836,-0.00302572,-0.00334181,-0.02139286,-0.00487260,-0.01854823,-0.00102265,-0.00191532,-0.00147472,-0.00504459,-0.00129621,-0.00194738,-0.00817035,-0.02079141,-0.01685674,0.00029479,-0.01640812,-0.00359529,-0.00014417,-0.00429296,-0.00386083,-0.00206358,-0.00185446,-0.00578696,0.00627738,0, 00:00:00.6
8,0.00240436,0.00074686,-0.00084555,-0.00002580,-0.00042861,0.00090049,-0.00291705,-0.00320554,0.00407768,-0.00057441,0.00094158,-0.00425377,0.00034953,-0.00105319,-0.00047061,-0.00280732,0.00066489,-0.00726739,0.00098869,-0.00581098,-0.00854751,-0.01004169,-0.00533276,0.00018759,-0.00058144,-0.00395896,-0.00717185,-0.00293521,-0.00270410,-0.00364143,-0.02024933,-0.00490514,-0.01831556,-0.00137557,-0.00194006,-0.00136321,-0.00469237,-0.00145474,-0.00184628,-0.00828619,-0.02036159,-0.01606572,0.00023640,-0.01601933,-0.00391335,0.00000907,-0.00392826,-0.00370181,-0.00189477,-0.00168713,-0.00555931,0.00591655,0, 00:00:00.7
9,0.00249189,0.00072632,-0.00083765,0.00000122,-0.00043752,0.00087484,-0.00272016,-0.00301604,0.00344724,-0.00063252,0.00075805,-0.00410331,0.00024537,-0.00099637,-0.00065531,-0.00257888,0.00029431,-0.00673534,0.00035292,-0.00554336,-0.00809189,-0.00970628,-0.00519837,0.00014035,-0.00059598,-0.00358190,-0.00645020,-0.00274394,-0.00252424,-0.00394054,-0.01912868,-0.00488634,-0.01788027,-0.00158047,-0.00174398,-0.00125987,-0.00430017,-0.00159106,-0.00161403,-0.00815942,-0.01971118,-0.01520077,-0.00004847,-0.01558071,-0.00401731,0.00003877,-0.00359965,-0.00355281,-0.00177903,-0.00158566,-0.00548941,0.00523071,0, 00:00:00.8
10,0.00249982,0.00063563,-0.00080936,0.00000147,-0.00051309,0.00071968,-0.00258097,-0.00284320,0.00296124,-0.00092355,0.00074533,-0.00390720,0.00006821,-0.00109378,-0.00066169,-0.00199473,0.00027488,-0.00651811,0.00013257,-0.00529148,-0.00737296,-0.00934335,-0.00490737,0.00012600,-0.00067221,-0.00315371,-0.00570000,-0.00265049,-0.00268913,-0.00393870,-0.01793306,-0.00485787,-0.01691376,-0.00154488,-0.00146090,-0.00110624,-0.00395567,-0.00163994,-0.00152710,-0.00792739,-0.01873238,-0.01429096,-0.00022839,-0.01462241,-0.00397458,0.00002992,-0.00325942,-0.00331553,-0.00158038,-0.00148501,-0.00550513,0.00492429,0, 00:00:00.9
11,0.00205744,0.00067441,-0.00072543,0.00002577,-0.00047119,0.00058538,-0.00242608,-0.00260732,0.00263213,-0.00053899,0.00075509,-0.00363062,0.00009241,-0.00097890,-0.00053492,-0.00198360,0.00005782,-0.00587765,0.00006250,-0.00486059,-0.00670045,-0.00884322,-0.00447913,0.00044138,-0.00056059,-0.00273659,-0.00506822,-0.00244784,-0.00266645,-0.00383002,-0.01672763,-0.00465751,-0.01581799,-0.00146406,-0.00108866,-0.00095720,-0.00357723,-0.00164623,-0.00127496,-0.00739506,-0.01766492,-0.01361517,-0.00035342,-0.01362812,-0.00383132,0.00006217,-0.00287252,-0.00310751,-0.00137284,-0.00136028,-0.00551286,0.00491057,0, 00:00:01.0
12,0.00187954,0.00061005,-0.00067472,0.00003464,-0.00046305,0.00041675,-0.00224167,-0.00238347,0.00241989,-0.00042287,0.00054591,-0.00328463,0.00017083,-0.00089537,-0.00068706,-0.00174341,-0.00005496,-0.00516378,0.00000740,-0.00442204,-0.00614531,-0.00831850,-0.00419243,0.00075387,-0.00049399,-0.00240334,-0.00443886,-0.00222346,-0.00240160,-0.00361386,-0.01571105,-0.00435101,-0.01475815,-0.00138851,-0.00086233,-0.00077246,-0.00320887,-0.00156247,-0.00103089,-0.00691388,-0.01670340,-0.01322919,-0.00050463,-0.01297005,-0.00362565,0.00007154,-0.00251308,-0.00282623,-0.00125526,-0.00120720,-0.00546581,0.00420095,0, 00:00:01.1
13,0.00168968,0.00074538,-0.00061793,0.00007868,-0.00041182,0.00038573,-0.00200818,-0.00219345,0.00204735,-0.00028100,0.00042039,-0.00306116,0.00016221,-0.00084816,-0.00059307,-0.00172699,0.00012809,-0.00474778,-0.00032857,-0.00407348,-0.00565730,-0.00776821,-0.00382182,0.00082413,-0.00043077,-0.00206098,-0.00390342,-0.00207852,-0.00209264,-0.00346669,-0.01457582,-0.00399892,-0.01376289,-0.00150794,-0.00076529,-0.00060437,-0.00288986,-0.00154094,-0.00087932,-0.00641211,-0.01570472,-0.01218764,-0.00071517,-0.01190457,-0.00351853,0.00012622,-0.00222421,-0.00257700,-0.00113723,-0.00108223,-0.00536137,0.00359962,0, 00:00:01.2
14,0.00116449,0.00074340,-0.00057869,0.00009362,-0.00028284,0.00032379,-0.00188849,-0.00204740,0.00167133,-0.00001621,0.00021122,-0.00285957,0.00005844,-0.00085442,-0.00054623,-0.00157366,0.00007063,-0.00451316,-0.00060917,-0.00378303,-0.00533166,-0.00721355,-0.00341075,0.00077706,-0.00026695,-0.00179444,-0.00344080,-0.00194364,-0.00203866,-0.00334093,-0.01344301,-0.00378482,-0.01294077,-0.00157223,-0.00076806,-0.00052829,-0.00261176,-0.00153737,-0.00084419,-0.00586914,-0.01459015,-0.01132070,-0.00078625,-0.01094287,-0.00351223,0.00015595,-0.00196127,-0.00234503,-0.00100157,-0.00098996,-0.00520389,0.00309776,0, 00:00:01.3
15,0.00086185,0.00069943,-0.00047842,0.00009616,-0.00017244,0.00019444,-0.00169678,-0.00191383,0.00137980,-0.00026487,0.00014814,-0.00257439,0.00000021,-0.00078743,-0.00044233,-0.00131457,0.00021492,-0.00421772,-0.00076348,-0.00342005,-0.00473278,-0.00658419,-0.00301442,0.00084371,-0.00014629,-0.00151452,-0.00298911,-0.00177227,-0.00189702,-0.00326868,-0.01240258,-0.00356743,-0.01190094,-0.00147480,-0.00063338,-0.00044391,-0.00230902,-0.00150076,-0.00082480,-0.00529336,-0.01337172,-0.01044031,-0.00085292,-0.01021141,-0.00334717,0.00011676,-0.00174580,-0.00213225,-0.00091781,-0.00087821,-0.00504395,0.00229182,0, 00:00:01.4
16,0.00085125,0.00054957,-0.00040143,0.00009239,-0.00008128,0.00018728,-0.00156922,-0.00178080,0.00116669,-0.00042220,0.00000099,-0.00237032,-0.00000568,-0.00071672,-0.00036457,-0.00101662,0.00028171,-0.00393642,-0.00077983,-0.00309024,-0.00429515,-0.00603904,-0.00284654,0.00090005,-0.00012655,-0.00130529,-0.00253372,-0.00169460,-0.00188064,-0.00311506,-0.01126029,-0.00339565,-0.01076400,-0.00135056,-0.00047656,-0.00035710,-0.00206031,-0.00140950,-0.00065541,-0.00493121,-0.01203353,-0.00949003,-0.00083759,-0.00944213,-0.00315119,0.00007983,-0.00150470,-0.00190552,-0.00077859,-0.00074723,-0.00481337,0.00164877,0, 00:00:01.5
17,0.00045592,0.00026564,-0.00040637,0.00005333,-0.00006845,0.00030761,-0.00138830,-0.00158681,0.00096987,-0.00042589,-0.00004836,-0.00213593,0.00001427,-0.00060281,-0.00028958,-0.00085559,0.00022789,-0.00369736,-0.00066381,-0.00274401,-0.00384988,-0.00537600,-0.00259282,0.00087911,-0.00010490,-0.00109509,-0.00213908,-0.00155112,-0.00179103,-0.00282228,-0.01011867,-0.00313708,-0.00951196,-0.00120463,-0.00038447,-0.00028372,-0.00181882,-0.00136217,-0.00067987,-0.00428006,-0.01066810,-0.00801632,-0.00083493,-0.00851295,-0.00289478,0.00003373,-0.00128708,-0.00167179,-0.00064354,-0.00062673,-0.00450591,0.00147295,0, 00:00:01.6
18,0.00062061,0.00011731,-0.00041384,0.00005842,0.00005234,0.00041768,-0.00122167,-0.00135658,0.00075220,-0.00065992,0.00000281,-0.00186566,0.00001708,-0.00047684,-0.00031934,-0.00060252,0.00028843,-0.00335439,-0.00070146,-0.00233706,-0.00319482,-0.00484116,-0.00230813,0.00087371,-0.00014864,-0.00088971,-0.00177170,-0.00132533,-0.00171854,-0.00258881,-0.00896295,-0.00276829,-0.00834943,-0.00112569,-0.00030512,-0.00018769,-0.00154469,-0.00126019,-0.00056732,-0.00383235,-0.00942472,-0.00685358,-0.00084383,-0.00759681,-0.00262536,0.00005179,-0.00107938,-0.00140454,-0.00053779,-0.00050894,-0.00410996,0.00137236,0, 00:00:01.7
19,0.00029539,-0.00001809,-0.00038575,0.00000236,0.00010002,0.00056052,-0.00103079,-0.00115132,0.00040381,-0.00065154,0.00011314,-0.00165678,0.00008901,-0.00039626,-0.00034495,-0.00045865,0.00027644,-0.00288970,-0.00102900,-0.00201600,-0.00264803,-0.00426234,-0.00182736,0.00088503,-0.00012378,-0.00072701,-0.00141228,-0.00108918,-0.00155846,-0.00250766,-0.00772511,-0.00229366,-0.00724793,-0.00102369,-0.00029194,-0.00011136,-0.00129169,-0.00108867,-0.00033844,-0.00353497,-0.00833897,-0.00573196,-0.00072823,-0.00652443,-0.00231104,0.00006718,-0.00091538,-0.00121664,-0.00043472,-0.00042102,-0.00366497,0.00119355,0, 00:00:01.8
20,0.00007952,-0.00021923,-0.00036502,0.00004693,0.00000855,0.00036238,-0.00082316,-0.00099420,0.00017471,-0.00078066,0.00004096,-0.00142056,0.00009814,-0.00029207,-0.00036193,-0.00043188,0.00019181,-0.00241779,-0.00123095,-0.00180457,-0.00228544,-0.00370439,-0.00154729,0.00076693,-0.00003025,-0.00051841,-0.00110451,-0.00089180,-0.00131139,-0.00233751,-0.00654693,-0.00198697,-0.00614637,-0.00094323,-0.00021348,-0.00003446,-0.00108744,-0.00092804,-0.00033038,-0.00324838,-0.00722445,-0.00477212,-0.00055123,-0.00559429,-0.00198054,0.00009948,-0.00079225,-0.00101641,-0.00038326,-0.00036207,-0.00325767,0.00089578,0, 00:00:01.9
21,0.00023949,-0.00024065,-0.00027299,-0.00002134,0.00001848,0.00033442,-0.00066168,-0.00084917,0.00006106,-0.00100823,-0.00015185,-0.00120470,-0.00000842,-0.00024210,-0.00024784,-0.00027380,0.00013317,-0.00208584,-0.00116669,-0.00150582,-0.00190422,-0.00319436,-0.00121922,0.00050735,-0.00005569,-0.00038652,-0.00084524,-0.00071596,-0.00115680,-0.00201259,-0.00545040,-0.00166330,-0.00512035,-0.00086673,-0.00016782,-0.00000315,-0.00092478,-0.00075315,-0.00033729,-0.00286007,-0.00589950,-0.00382910,-0.00044106,-0.00464587,-0.00166641,0.00010695,-0.00066061,-0.00082033,-0.00034147,-0.00033072,-0.00283070,0.00075594,0, 00:00:02.0
22,0.00003500,-0.00014054,-0.00023007,-0.00003561,-0.00001456,0.00035008,-0.00056167,-0.00069511,-0.00001994,-0.00065944,-0.00030739,-0.00095265,-0.00008890,-0.00021414,-0.00023859,-0.00028516,0.00018255,-0.00161693,-0.00103310,-0.00127843,-0.00154434,-0.00251273,-0.00098899,0.00034811,0.00000085,-0.00030881,-0.00062256,-0.00059417,-0.00105785,-0.00169840,-0.00436098,-0.00136169,-0.00400678,-0.00070504,-0.00011142,-0.00001310,-0.00074134,-0.00061190,-0.00051410,-0.00237517,-0.00465623,-0.00302677,-0.00027508,-0.00360876,-0.00137520,0.00007108,-0.00056416,-0.00065508,-0.00026918,-0.00028372,-0.00238992,0.00071067,0, 00:00:02.1
23,0.00013871,-0.00009507,-0.00007115,-0.00004131,0.00008171,0.00024179,-0.00042757,-0.00051726,0.00002708,-0.00048200,-0.00032573,-0.00071066,-0.00010838,-0.00017331,-0.00017721,-0.00032342,0.00002661,-0.00130515,-0.00067568,-0.00100218,-0.00101344,-0.00181865,-0.00086377,0.00016702,-0.00003695,-0.00016712,-0.00044786,-0.00050505,-0.00083478,-0.00128064,-0.00325271,-0.00100380,-0.00290092,-0.00050097,-0.00006909,-0.00002891,-0.00057467,-0.00046666,-0.00045399,-0.00191466,-0.00329343,-0.00205698,-0.00005505,-0.00262154,-0.00105264,0.00002550,-0.00043579,-0.00048612,-0.00017154,-0.00022395,-0.00188798,0.00044929,0, 00:00:02.2
24,0.00031786,-0.00007756,0.00001277,-0.00007379,0.00012842,0.00016040,-0.00027867,-0.00034515,0.00009259,-0.00025157,-0.00023560,-0.00049215,-0.00007327,-0.00017578,-0.00005711,-0.00026092,0.00003955,-0.00090662,-0.00033200,-0.00061689,-0.00055969,-0.00124210,-0.00061123,0.00013418,-0.00003727,-0.00011402,-0.00028107,-0.00038148,-0.00061016,-0.00086728,-0.00213389,-0.00061624,-0.00185357,-0.00031125,-0.00000082,-0.00004542,-0.00041986,-0.00033517,-0.00030740,-0.00123501,-0.00199829,-0.00141992,0.00009576,-0.00168558,-0.00071523,-0.00000513,-0.00028581,-0.00031247,-0.00011132,-0.00016485,-0.00132606,0.00016560,0, 00:00:02.3
25,0.00009947,-0.00005282,-0.00001283,-0.00004091,0.00004263,0.00010276,-0.00013073,-0.00015722,0.00022984,-0.00023558,-0.00019862,-0.00024882,-0.00006278,-0.00006848,0.00000018,-0.00003846,-0.00015083,-0.00048750,0.00003757,-0.00030824,-0.00018988,-0.00067296,-0.00034939,0.00013043,-0.00005820,-0.00003831,-0.00013514,-0.00020241,-0.00027354,-0.00035293,-0.00112701,-0.00031491,-0.00092952,-0.00014797,0.00000578,-0.00001171,-0.00023886,-0.00019967,-0.00016118,-0.00063314,-0.00080841,-0.00067787,0.00015284,-0.00079791,-0.00035316,0.00001223,-0.00014715,-0.00014755,-0.00008222,-0.00008959,-0.00068808,-0.00001219,0, 00:00:02.4
26,0.00000588,-0.00000095,-0.00001142,-0.00003836,-0.00000207,0.00000802,0.00000337,0.00001530,0.00051646,0.00002731,-0.00000163,-0.00000870,-0.00000622,-0.00001770,-0.00001979,-0.00001603,-0.00003616,0.00002813,0.00055192,0.00007495,0.00004536,-0.00001361,-0.00005396,0.00014949,-0.00002139,-0.00001628,-0.00002363,-0.00005780,-0.00000080,0.00024135,-0.00019026,-0.00001123,0.00003776,-0.00003429,0.00003780,-0.00001734,-0.00007459,-0.00003229,-0.00001768,0.00004379,0.00053675,0.00004088,0.00024627,-0.00000451,0.00001447,-0.00001519,-0.00002230,-0.00004591,-0.00007275,-0.00002371,-0.00002805,0.00013263,0, 00:00:02.5
27,-0.00014659,-0.00007841,0.00004079,-0.00008507,-0.00008530,-0.00019132,0.00031915,0.00007782,-0.00033061,0.00021112,-0.00006177,0.00035815,-0.00006318,-0.00006961,-0.00007684,0.00019685,-0.00003950,0.00044151,0.00024204,0.00026105,0.00064305,0.00096629,0.00037842,-0.00016142,0.00001996,0.00006431,0.00024886,0.00021833,0.00030142,0.00035776,0.00143165,0.00045641,0.00129628,-0.00014149,-0.00002142,0.00000094,0.00026080,0.00003059,0.00003637,0.00057336,0.00154247,0.00131059,0.00001979,0.00145002,0.00033102,0.00008523,0.00021158,0.00002060,0.00002134,0.00022236,0.00064988,-0.00013097,0, 00:00:02.6
28,-0.00013204,-0.00006355,0.00013692,-0.00017568,-0.00006296,-0.00044835,0.00059661,0.00019177,-0.00090688,0.00066714,-0.00031940,0.00074614,-0.00009652,0.00006355,-0.00026010,0.00027858,-0.00013245,0.00085612,0.00012158,0.00071818,0.00133655,0.00192151,0.00082643,-0.00047780,-0.00002448,0.00013589,0.00049816,0.00056334,0.00071599,0.00063883,0.00324308,0.00103851,0.00266121,-0.00029685,-0.00002667,0.00007877,0.00060336,0.00008571,0.00015173,0.00111445,0.00261980,0.00279753,-0.00003162,0.00286227,0.00065795,0.00008246,0.00039383,0.00007232,0.00011500,0.00047411,0.00139967,-0.00032326,0, 00:00:02.7
29,0.00040664,0.00006648,0.00022824,-0.00034281,0.00005260,-0.00058283,0.00081103,0.00030657,-0.00128426,0.00093996,-0.00022164,0.00112973,-0.00027972,0.00008234,-0.00039336,0.00056146,-0.00019919,0.00127200,0.00024956,0.00120625,0.00203019,0.00282010,0.00134255,-0.00087136,-0.00001303,0.00021028,0.00080723,0.00078720,0.00098910,0.00093441,0.00527023,0.00149726,0.00391360,-0.00043409,-0.00003901,0.00004861,0.00097455,0.00016013,0.00031537,0.00159240,0.00388266,0.00422588,0.00002076,0.00441333,0.00091890,0.00015745,0.00061709,0.00018951,0.00021414,0.00076606,0.00215438,-0.00022462,0, 00:00:02.8
30,0.00073428,0.00022697,0.00027014,-0.00037454,0.00007698,-0.00074028,0.00095314,0.00044155,-0.00163784,0.00149810,-0.00025039,0.00147709,-0.00041434,0.00007356,-0.00031898,0.00083900,-0.00028557,0.00185752,0.00050309,0.00170093,0.00274674,0.00382279,0.00194924,-0.00121513,-0.00008488,0.00023877,0.00108813,0.00102718,0.00139783,0.00131019,0.00746732,0.00206552,0.00503985,-0.00051393,-0.00014443,0.00003634,0.00131298,0.00027264,0.00025244,0.00225262,0.00529738,0.00592781,0.00010398,0.00582539,0.00123573,0.00021423,0.00088810,0.00033836,0.00032157,0.00106970,0.00297975,-0.00005271,0, 00:00:02.9
31,0.00045787,-0.00000788,0.00029942,-0.00043266,-0.00004769,-0.00110697,0.00121305,0.00062497,-0.00202354,0.00152221,-0.00024249,0.00189392,-0.00040129,0.00031502,-0.00027275,0.00078782,-0.00058620,0.00223489,0.00061897,0.00229761,0.00334000,0.00482871,0.00260904,-0.00137883,-0.00011035,0.00035696,0.00142779,0.00134979,0.00174723,0.00169167,0.00964318,0.00275822,0.00644012,-0.00057914,-0.00013189,0.00007343,0.00167949,0.00036790,0.00033762,0.00299698,0.00661453,0.00737160,0.00009617,0.00757047,0.00162358,0.00023062,0.00117201,0.00054697,0.00043788,0.00135090,0.00392441,-0.00025459,0, 00:00:03.0
32,0.00014525,-0.00007037,0.00028604,-0.00047599,-0.00003801,-0.00128561,0.00147892,0.00081842,-0.00221270,0.00177315,-0.00030498,0.00227269,-0.00049191,0.00053126,-0.00012655,0.00101667,-0.00043246,0.00269023,0.00095071,0.00286354,0.00396073,0.00586250,0.00325761,-0.00152701,-0.00001505,0.00043810,0.00181298,0.00157820,0.00216262,0.00222660,0.01179769,0.00334077,0.00776763,-0.00066123,-0.00003694,0.00019346,0.00207412,0.00042091,0.00066484,0.00372369,0.00784624,0.00907535,0.00022473,0.00929119,0.00202915,0.00025111,0.00147913,0.00069441,0.00049051,0.00162319,0.00485516,-0.00077727,0, 00:00:03.1
33,0.00010387,-0.00018207,0.00039988,-0.00048441,0.00001890,-0.00148311,0.00171300,0.00104440,-0.00206706,0.00197878,-0.00023359,0.00254543,-0.00064617,0.00064080,-0.00001222,0.00122688,-0.00042317,0.00331303,0.00174429,0.00350988,0.00461323,0.00684941,0.00390569,-0.00168443,0.00001633,0.00053355,0.00213708,0.00179956,0.00257349,0.00283653,0.01392563,0.00404098,0.00877857,-0.00063200,0.00007084,0.00021854,0.00248627,0.00047972,0.00052882,0.00457304,0.00930053,0.01045040,0.00058288,0.01113431,0.00248496,0.00030041,0.00187127,0.00083528,0.00057387,0.00195573,0.00578773,-0.00172762,0, 00:00:03.2
34,0.00012270,-0.00027752,0.00042808,-0.00051399,0.00005496,-0.00168566,0.00189617,0.00128926,-0.00194714,0.00214122,-0.00049050,0.00281633,-0.00074156,0.00070632,0.00006280,0.00151622,-0.00053826,0.00391143,0.00254960,0.00414935,0.00500389,0.00787479,0.00444916,-0.00185196,0.00004305,0.00063532,0.00246932,0.00210082,0.00305749,0.00345747,0.01590384,0.00471215,0.00965390,-0.00058593,0.00012629,0.00024552,0.00287324,0.00049539,0.00046305,0.00535708,0.01070962,0.01177150,0.00099057,0.01305855,0.00301261,0.00036267,0.00231557,0.00098432,0.00062686,0.00232112,0.00687961,-0.00273864,0, 00:00:03.3
35,-0.00024687,-0.00037468,0.00048033,-0.00056108,0.00024824,-0.00183759,0.00211785,0.00153811,-0.00191548,0.00291825,-0.00071683,0.00312596,-0.00089903,0.00067649,0.00006744,0.00143328,-0.00059472,0.00427228,0.00329497,0.00459933,0.00545274,0.00891328,0.00484802,-0.00220504,-0.00002058,0.00077270,0.00283752,0.00233075,0.00352367,0.00405861,0.01768518,0.00514780,0.01084783,-0.00053186,0.00023286,0.00025922,0.00329182,0.00052181,0.00033483,0.00614221,0.01239786,0.01300033,0.00131194,0.01492248,0.00341250,0.00040903,0.00278136,0.00112455,0.00072356,0.00269952,0.00799333,-0.00369059,0, 00:00:03.4
36,-0.00073679,-0.00050249,0.00059447,-0.00054332,0.00032207,-0.00194507,0.00227427,0.00188934,-0.00175887,0.00354146,-0.00082661,0.00344393,-0.00107357,0.00065746,-0.00000482,0.00137907,-0.00082950,0.00449387,0.00423118,0.00513987,0.00601342,0.01000757,0.00506495,-0.00246539,-0.00000534,0.00084190,0.00323096,0.00246190,0.00379108,0.00460409,0.01951176,0.00570885,0.01223459,-0.00043925,0.00039973,0.00027271,0.00373105,0.00056833,0.00028667,0.00699369,0.01451496,0.01418856,0.00171601,0.01674306,0.00397575,0.00051013,0.00325995,0.00137919,0.00084965,0.00312727,0.00913456,-0.00461223,0, 00:00:03.5
37,-0.00089179,-0.00066782,0.00062666,-0.00056826,0.00038799,-0.00206143,0.00241624,0.00228836,-0.00130598,0.00407291,-0.00078853,0.00367662,-0.00114873,0.00070207,0.00012302,0.00139889,-0.00094360,0.00485801,0.00522317,0.00593169,0.00663839,0.01107954,0.00552193,-0.00244237,-0.00000819,0.00090350,0.00359213,0.00260735,0.00405355,0.00527325,0.02136824,0.00619018,0.01388146,-0.00010849,0.00082513,0.00039527,0.00415715,0.00059515,0.00029984,0.00795295,0.01697804,0.01600714,0.00197253,0.01900017,0.00488354,0.00055074,0.00378914,0.00174439,0.00097354,0.00350335,0.01015856,-0.00509303,0, 00:00:03.6
38,-0.00095106,-0.00068429,0.00063634,-0.00048278,0.00049595,-0.00223346,0.00259719,0.00265546,-0.00086356,0.00440841,-0.00085803,0.00405590,-0.00117831,0.00093987,0.00019479,0.00158487,-0.00114779,0.00526488,0.00590441,0.00672966,0.00763538,0.01205751,0.00603277,-0.00217019,0.00005844,0.00102477,0.00399238,0.00280386,0.00448825,0.00611745,0.02331370,0.00666353,0.01591925,0.00027729,0.00117751,0.00052107,0.00461665,0.00061890,0.00053767,0.00896846,0.01949119,0.01783122,0.00180257,0.02136392,0.00587163,0.00053506,0.00433305,0.00200323,0.00111308,0.00373999,0.01119506,-0.00594463,0, 00:00:03.7
39,-0.00063774,-0.00069247,0.00079092,-0.00037119,0.00053065,-0.00232761,0.00277713,0.00298759,0.00028602,0.00460553,-0.00082749,0.00450700,-0.00124361,0.00106259,0.00018320,0.00194077,-0.00124925,0.00558741,0.00735005,0.00803796,0.00865224,0.01306640,0.00645840,-0.00170925,0.00013264,0.00117161,0.00438652,0.00294939,0.00511659,0.00752383,0.02503900,0.00702548,0.01816452,0.00088448,0.00159000,0.00060421,0.00504639,0.00075732,0.00060601,0.01027355,0.02312026,0.01994823,0.00101871,0.02353918,0.00679948,0.00050234,0.00489761,0.00226190,0.00122129,0.00387305,0.01197822,-0.00730148,0, 00:00:03.8
40,-0.00077636,-0.00078802,0.00089035,-0.00028399,0.00057924,-0.00236703,0.00301063,0.00335167,0.00222324,0.00520275,-0.00112051,0.00509626,-0.00144795,0.00119810,0.00012814,0.00205442,-0.00149203,0.00610494,0.00958637,0.00979848,0.00985449,0.01403211,0.00688999,-0.00135454,0.00020911,0.00133816,0.00476369,0.00308811,0.00572259,0.00956502,0.02660070,0.00737118,0.02062007,0.00174189,0.00206298,0.00067350,0.00547248,0.00084999,0.00069327,0.01198939,0.02779062,0.02190276,-0.00012271,0.02566946,0.00781994,0.00045231,0.00543584,0.00257201,0.00133594,0.00390744,0.01264277,-0.00882684,0, 00:00:03.9
41,-0.00083977,-0.00076608,0.00088814,-0.00024753,0.00054435,-0.00248017,0.00318452,0.00379614,0.00341964,0.00613913,-0.00143331,0.00563799,-0.00163688,0.00125580,0.00023964,0.00226685,-0.00141631,0.00651501,0.01080868,0.01112858,0.01109548,0.01543243,0.00764614,-0.00129468,0.00019174,0.00149700,0.00513295,0.00328093,0.00613019,0.01079495,0.02901321,0.00774025,0.02331178,0.00256762,0.00235913,0.00071944,0.00586419,0.00091713,0.00093244,0.01343845,0.03205065,0.02346984,-0.00067289,0.02824680,0.00900740,0.00040650,0.00590517,0.00291309,0.00148013,0.00405893,0.01375568,-0.01018137,0, 00:00:04.0
42,-0.00084532,-0.00085478,0.00080135,-0.00023617,0.00054774,-0.00254807,0.00333841,0.00430769,0.00394197,0.00631972,-0.00167941,0.00615386,-0.00187975,0.00128106,0.00021341,0.00219710,-0.00161448,0.00688566,0.01118028,0.01193322,0.01203632,0.01716183,0.00839537,-0.00181411,0.00015844,0.00157082,0.00550848,0.00338409,0.00641322,0.01124480,0.03176465,0.00832504,0.02597013,0.00312924,0.00239031,0.00070329,0.00618962,0.00106193,0.00096973,0.01431818,0.03582678,0.02484987,-0.00029240,0.03049472,0.00999449,0.00046908,0.00625852,0.00331709,0.00171779,0.00432159,0.01528268,-0.01062698,0, 00:00:04.1
43,-0.00107340,-0.00106190,0.00082714,-0.00014821,0.00060863,-0.00275220,0.00350671,0.00486940,0.00434105,0.00658581,-0.00195080,0.00663177,-0.00205594,0.00128090,0.00012815,0.00210143,-0.00172566,0.00705569,0.01142703,0.01268625,0.01291342,0.01853127,0.00908287,-0.00241893,0.00002561,0.00166454,0.00583076,0.00342848,0.00660103,0.01163491,0.03442389,0.00878937,0.02851980,0.00355872,0.00237645,0.00072409,0.00651959,0.00123109,0.00111061,0.01514038,0.03932201,0.02661037,0.00072189,0.03274438,0.01082005,0.00057993,0.00659000,0.00368268,0.00197566,0.00456742,0.01705575,-0.01084558,0, 00:00:04.2
44,-0.00143089,-0.00112022,0.00092494,0.00002946,0.00054149,-0.00277772,0.00371477,0.00550511,0.00457186,0.00658838,-0.00194820,0.00702713,-0.00209898,0.00144995,0.00024489,0.00233211,-0.00152466,0.00758193,0.01150188,0.01334532,0.01402364,0.01963284,0.00973004,-0.00297958,-0.00002875,0.00177736,0.00619342,0.00361170,0.00697229,0.01190958,0.03688185,0.00928790,0.03086110,0.00388527,0.00237055,0.00077917,0.00686491,0.00149813,0.00113221,0.01603688,0.04233858,0.02816819,0.00184001,0.03519356,0.01158083,0.00069141,0.00689493,0.00406455,0.00218817,0.00483350,0.01893373,-0.01099840,0, 00:00:04.3
45,-0.00196811,-0.00124378,0.00100282,0.00017225,0.00048405,-0.00290387,0.00403339,0.00616299,0.00444283,0.00672177,-0.00199075,0.00727902,-0.00216946,0.00157314,0.00021354,0.00243057,-0.00132554,0.00843244,0.01117335,0.01382300,0.01472666,0.02059594,0.01031579,-0.00367720,-0.00003470,0.00184552,0.00652040,0.00380801,0.00722273,0.01198119,0.03915847,0.00966917,0.03333035,0.00415707,0.00230088,0.00083359,0.00719354,0.00175476,0.00128575,0.01670261,0.04511758,0.02992357,0.00280852,0.03789981,0.01230448,0.00079372,0.00713278,0.00441751,0.00237879,0.00505232,0.02078403,-0.01080221,0, 00:00:04.4
46,-0.00172357,-0.00135133,0.00102344,0.00015451,0.00057032,-0.00318882,0.00427839,0.00679785,0.00421576,0.00642768,-0.00199665,0.00741601,-0.00230432,0.00165989,0.00024713,0.00259388,-0.00102324,0.00894980,0.01060333,0.01416386,0.01529780,0.02171223,0.01103999,-0.00467831,-0.00016130,0.00196852,0.00682270,0.00396639,0.00733243,0.01197969,0.04151867,0.00996929,0.03559838,0.00433644,0.00194313,0.00089167,0.00751241,0.00227537,0.00117157,0.01711035,0.04758095,0.03154950,0.00388954,0.04053793,0.01274765,0.00093580,0.00729658,0.00471177,0.00261472,0.00528006,0.02280266,-0.01062548,0, 00:00:04.5
47,-0.00166416,-0.00144760,0.00103157,0.00011441,0.00042728,-0.00316333,0.00438683,0.00748037,0.00352822,0.00643679,-0.00203837,0.00761006,-0.00238765,0.00173298,0.00036332,0.00251228,-0.00049867,0.00955738,0.00920446,0.01377040,0.01527679,0.02281245,0.01167937,-0.00677952,-0.00017112,0.00201617,0.00702431,0.00407518,0.00747402,0.01141418,0.04401934,0.01018549,0.03736462,0.00419780,0.00116527,0.00087689,0.00776601,0.00305540,0.00124654,0.01715112,0.04876160,0.03256126,0.00532620,0.04332548,0.01298943,0.00130061,0.00727411,0.00493981,0.00285748,0.00560876,0.02542709,-0.01043441,0, 00:00:04.6
48,-0.00201738,-0.00173543,0.00100415,0.00004124,0.00024006,-0.00321505,0.00441757,0.00815079,0.00210638,0.00594572,-0.00194877,0.00751072,-0.00263495,0.00173520,0.00028037,0.00228942,-0.00018349,0.01021209,0.00689182,0.01250473,0.01480382,0.02410515,0.01255372,-0.00969771,-0.00030045,0.00197783,0.00710458,0.00412978,0.00731547,0.00991950,0.04686256,0.01028970,0.03899314,0.00347826,0.00008735,0.00075235,0.00794601,0.00395085,0.00146613,0.01629386,0.04915190,0.03347923,0.00724062,0.04670433,0.01339835,0.00175322,0.00707873,0.00523132,0.00312565,0.00603546,0.02869639,-0.00984841,0, 00:00:04.7
49,-0.00198769,-0.00194300,0.00093777,-0.00003153,0.00003852,-0.00352797,0.00447580,0.00884207,0.00073990,0.00503233,-0.00196722,0.00725341,-0.00294269,0.00168858,0.00016074,0.00209619,-0.00012434,0.01061237,0.00504196,0.01121988,0.01436757,0.02527105,0.01358875,-0.01286293,-0.00043507,0.00199235,0.00710015,0.00413638,0.00697341,0.00846106,0.04987337,0.01037032,0.04049549,0.00206042,-0.00109862,0.00066114,0.00812012,0.00481122,0.00148304,0.01507891,0.04886520,0.03376189,0.00952912,0.05050613,0.01387017,0.00225463,0.00684637,0.00554507,0.00340034,0.00651813,0.03202939,-0.00893531,0, 00:00:04.8
50,-0.00240819,-0.00201917,0.00097315,0.00000025,-0.00012433,-0.00397949,0.00448691,0.00961878,0.00117258,0.00508607,-0.00159425,0.00681578,-0.00317142,0.00176792,0.00013023,0.00213091,0.00001591,0.01096324,0.00524529,0.01064355,0.01418410,0.02601394,0.01401288,-0.01511709,-0.00045692,0.00186144,0.00701682,0.00408177,0.00709250,0.00860234,0.05173815,0.01054799,0.04163234,0.00095628,-0.00193920,0.00060727,0.00830425,0.00562220,0.00134198,0.01441521,0.04944735,0.03381421,0.01126160,0.05324083,0.01381679,0.00266867,0.00669366,0.00586582,0.00357707,0.00681759,0.03427133,-0.00848974,0, 00:00:04.9
51,-0.00247069,-0.00210377,0.00101842,0.00010853,-0.00026395,-0.00418398,0.00449272,0.01045708,0.00264497,0.00570786,-0.00154504,0.00663209,-0.00322653,0.00186548,0.00014805,0.00191150,-0.00010728,0.01146118,0.00662172,0.01066119,0.01462863,0.02682971,0.01421968,-0.01620589,-0.00040698,0.00170864,0.00685529,0.00398829,0.00742507,0.00951056,0.05322297,0.01102946,0.04287125,0.00075464,-0.00232514,0.00055782,0.00852797,0.00641259,0.00140823,0.01471047,0.05157113,0.03461698,0.01239083,0.05506837,0.01401759,0.00287357,0.00667126,0.00627895,0.00368889,0.00693863,0.03585229,-0.00858485,1, 00:00:05.0
52,-0.00249626,-0.00247784,0.00104378,0.00019824,-0.00040593,-0.00426210,0.00457728,0.01125239,0.00426777,0.00681579,-0.00188620,0.00678973,-0.00327076,0.00199691,0.00014937,0.00151566,-0.00007321,0.01225989,0.00818438,0.01101999,0.01516619,0.02811996,0.01473241,-0.01692094,-0.00031535,0.00152687,0.00671745,0.00385715,0.00772948,0.01058628,0.05487128,0.01175224,0.04471428,0.00110813,-0.00255972,0.00048675,0.00873097,0.00715466,0.00163467,0.01534876,0.05418536,0.03580589,0.01319950,0.05671575,0.01469423,0.00298156,0.00666294,0.00671182,0.00377464,0.00703332,0.03741713,-0.00851764,0, 00:00:05.1
53,-0.00278392,-0.00257743,0.00107434,0.00021400,-0.00057914,-0.00439796,0.00457511,0.01196511,0.00570724,0.00779220,-0.00211039,0.00697575,-0.00333169,0.00213832,-0.00002571,0.00152263,-0.00012198,0.01279809,0.00972014,0.01147136,0.01590187,0.02945063,0.01522039,-0.01754998,-0.00026840,0.00128903,0.00646467,0.00372983,0.00820955,0.01169220,0.05638180,0.01250862,0.04673679,0.00145384,-0.00268830,0.00046282,0.00892023,0.00781140,0.00193974,0.01618353,0.05693121,0.03720712,0.01383729,0.05858669,0.01542675,0.00308990,0.00665117,0.00709279,0.00380651,0.00711622,0.03891596,-0.00864822,0, 00:00:05.2
54,-0.00330594,-0.00273996,0.00100404,0.00019541,-0.00075529,-0.00460458,0.00450678,0.01263519,0.00709628,0.00872301,-0.00226554,0.00717165,-0.00347387,0.00222978,0.00003639,0.00144253,-0.00025499,0.01319888,0.01118147,0.01186190,0.01649226,0.03086968,0.01576220,-0.01815709,-0.00026738,0.00100964,0.00615457,0.00361973,0.00852234,0.01250569,0.05785001,0.01329667,0.04860370,0.00195612,-0.00275234,0.00038904,0.00908668,0.00843342,0.00175669,0.01704849,0.05989435,0.03888702,0.01435514,0.06042457,0.01630062,0.00315637,0.00661756,0.00750216,0.00382474,0.00721589,0.04035299,-0.00914762,0, 00:00:05.3
55,-0.00391778,-0.00290712,0.00096445,0.00013267,-0.00084351,-0.00480145,0.00443789,0.01332826,0.00842565,0.00925233,-0.00244225,0.00737200,-0.00370667,0.00216504,0.00014707,0.00132962,-0.00011517,0.01348618,0.01261892,0.01213943,0.01709880,0.03241986,0.01645870,-0.01906126,-0.00040639,0.00070828,0.00580387,0.00345789,0.00855803,0.01324418,0.05947005,0.01390567,0.05044973,0.00240224,-0.00309726,0.00020879,0.00918994,0.00900548,0.00175380,0.01773384,0.06278433,0.04022040,0.01503150,0.06233219,0.01705774,0.00331187,0.00654598,0.00784910,0.00389301,0.00738522,0.04194169,-0.00912123,0, 00:00:05.4
56,-0.00423408,-0.00300244,0.00101656,0.00008821,-0.00100578,-0.00522164,0.00437112,0.01403030,0.00975721,0.00976371,-0.00265124,0.00764346,-0.00393397,0.00224937,0.00004969,0.00090717,0.00004898,0.01363054,0.01408823,0.01253139,0.01780436,0.03370914,0.01703802,-0.01975578,-0.00061784,0.00042617,0.00541119,0.00327746,0.00897182,0.01406468,0.06107989,0.01465277,0.05246308,0.00291490,-0.00331481,0.00008843,0.00926433,0.00954080,0.00171128,0.01853655,0.06581425,0.04157853,0.01572756,0.06417195,0.01786197,0.00346965,0.00648030,0.00818020,0.00393849,0.00749382,0.04353631,-0.00925013,0, 00:00:05.5
57,-0.00441785,-0.00345723,0.00104165,0.00004489,-0.00124626,-0.00528198,0.00435443,0.01471474,0.01092453,0.01058668,-0.00278390,0.00778231,-0.00408025,0.00234196,0.00004015,0.00090680,-0.00002286,0.01410393,0.01529607,0.01298079,0.01832116,0.03483965,0.01764744,-0.02043853,-0.00074828,0.00012971,0.00505028,0.00316505,0.00923956,0.01485842,0.06263048,0.01555892,0.05458862,0.00343517,-0.00355124,0.00001994,0.00930364,0.01012290,0.00176669,0.01930120,0.06854936,0.04320382,0.01638454,0.06597783,0.01876650,0.00358970,0.00640805,0.00850390,0.00397300,0.00757736,0.04514091,-0.00906805,0, 00:00:05.6
58,-0.00442999,-0.00361369,0.00102866,0.00005116,-0.00149747,-0.00571048,0.00440981,0.01534385,0.01186928,0.01174115,-0.00287644,0.00809963,-0.00411522,0.00245761,0.00001504,0.00049262,0.00004577,0.01484916,0.01626696,0.01330725,0.01910705,0.03595025,0.01819668,-0.02071532,-0.00074298,-0.00029477,0.00465002,0.00303252,0.00935039,0.01550121,0.06408338,0.01634762,0.05693201,0.00406646,-0.00370093,-0.00001618,0.00938530,0.01066668,0.00174273,0.02027184,0.07132884,0.04478702,0.01689994,0.06815793,0.01974788,0.00362873,0.00632424,0.00879862,0.00399344,0.00764043,0.04660506,-0.00907845,0, 00:00:05.7
59,-0.00495167,-0.00379768,0.00100128,0.00005250,-0.00153492,-0.00601181,0.00442667,0.01587911,0.01271040,0.01251840,-0.00293076,0.00835197,-0.00422721,0.00264119,0.00009639,0.00012204,0.00023333,0.01506254,0.01717236,0.01353812,0.01987404,0.03731218,0.01879989,-0.02139478,-0.00076980,-0.00069498,0.00421011,0.00287546,0.00958140,0.01616725,0.06552385,0.01707084,0.05925235,0.00461998,-0.00401837,-0.00009600,0.00941023,0.01118808,0.00149886,0.02100633,0.07396609,0.04613971,0.01750110,0.07025336,0.02060225,0.00372275,0.00623360,0.00904582,0.00402938,0.00774258,0.04814184,-0.00910426,0, 00:00:05.8
60,-0.00504925,-0.00392338,0.00099353,0.00001117,-0.00152115,-0.00620219,0.00443519,0.01639149,0.01350654,0.01317254,-0.00317989,0.00850077,-0.00433325,0.00276600,0.00007410,-0.00048283,0.00025436,0.01552230,0.01793170,0.01378206,0.02031425,0.03868352,0.01932806,-0.02219397,-0.00084566,-0.00113304,0.00364135,0.00278255,0.00996160,0.01659179,0.06692982,0.01776727,0.06125270,0.00505890,-0.00442565,-0.00024770,0.00944808,0.01171392,0.00149937,0.02179057,0.07658444,0.04729101,0.01830440,0.07211989,0.02138708,0.00385055,0.00611226,0.00923768,0.00402343,0.00785221,0.04978082,-0.00920717,0, 00:00:05.9
61,-0.00473309,-0.00430298,0.00091476,-0.00007486,-0.00166288,-0.00644242,0.00438850,0.01687885,0.01421442,0.01360509,-0.00341978,0.00868163,-0.00457055,0.00271475,-0.00006006,-0.00080581,0.00026438,0.01546047,0.01873400,0.01397598,0.02100552,0.03998057,0.01975424,-0.02328151,-0.00107649,-0.00159799,0.00310897,0.00259959,0.01010575,0.01705715,0.06840476,0.01839131,0.06316443,0.00551523,-0.00493017,-0.00045732,0.00945537,0.01220379,0.00134656,0.02230054,0.07927021,0.04896015,0.01912759,0.07376595,0.02207612,0.00397428,0.00594084,0.00942748,0.00402309,0.00792689,0.05139748,-0.00957589,0, 00:00:06.0
62,-0.00467498,-0.00450723,0.00091754,-0.00018917,-0.00180722,-0.00650014,0.00437829,0.01738898,0.01493112,0.01442548,-0.00350970,0.00886103,-0.00483934,0.00282130,0.00001362,-0.00119448,0.00046530,0.01555271,0.01966218,0.01423176,0.02185772,0.04117955,0.02036265,-0.02422571,-0.00126974,-0.00202636,0.00257040,0.00236229,0.01018270,0.01750704,0.07004710,0.01900058,0.06496140,0.00603237,-0.00530934,-0.00065396,0.00943967,0.01268807,0.00118084,0.02282785,0.08214509,0.05111735,0.02006741,0.07575608,0.02277869,0.00411660,0.00574912,0.00956810,0.00407045,0.00800621,0.05306893,-0.00915996,0, 00:00:06.1
63,-0.00450663,-0.00485414,0.00090623,-0.00023723,-0.00197770,-0.00673068,0.00438007,0.01795016,0.01590174,0.01529813,-0.00362894,0.00913129,-0.00496585,0.00299719,-0.00006921,-0.00142094,0.00045433,0.01588851,0.02095741,0.01453930,0.02246064,0.04238754,0.02093162,-0.02487118,-0.00148900,-0.00251247,0.00205357,0.00220159,0.01026503,0.01811747,0.07161780,0.01964718,0.06680564,0.00672383,-0.00556313,-0.00083545,0.00943652,0.01314895,0.00108827,0.02337105,0.08494401,0.05236438,0.02107558,0.07736748,0.02362423,0.00418698,0.00562719,0.00970146,0.00408655,0.00805109,0.05484245,-0.00879103,0, 00:00:06.2
64,-0.00447010,-0.00515975,0.00092361,-0.00021900,-0.00233656,-0.00699361,0.00443436,0.01851334,0.01672031,0.01566791,-0.00367643,0.00940920,-0.00504776,0.00322267,-0.00000613,-0.00147909,0.00021140,0.01612626,0.02194151,0.01491203,0.02322702,0.04361437,0.02153543,-0.02552800,-0.00174181,-0.00297024,0.00158066,0.00204157,0.01057046,0.01854032,0.07313196,0.02044290,0.06888305,0.00737861,-0.00579344,-0.00093952,0.00947391,0.01364781,0.00094855,0.02389493,0.08751880,0.05400173,0.02187875,0.07913833,0.02461679,0.00425864,0.00551218,0.00984563,0.00409563,0.00815301,0.05655720,-0.00875076,0, 00:00:06.3
65,-0.00447450,-0.00555967,0.00084972,-0.00018641,-0.00259394,-0.00709413,0.00444919,0.01903100,0.01724492,0.01623029,-0.00373774,0.00963219,-0.00514117,0.00347109,-0.00010295,-0.00193475,-0.00008114,0.01655651,0.02243208,0.01517023,0.02395670,0.04466570,0.02211382,-0.02630429,-0.00190001,-0.00349163,0.00106496,0.00181906,0.01083260,0.01889016,0.07473339,0.02122874,0.07075155,0.00790866,-0.00613713,-0.00104981,0.00946132,0.01405843,0.00101460,0.02430379,0.08987965,0.05534230,0.02269359,0.08115622,0.02548432,0.00438821,0.00542172,0.00998364,0.00410535,0.00821308,0.05827463,-0.00811290,0, 00:00:06.4
66,-0.00477597,-0.00567305,0.00077646,-0.00024240,-0.00278387,-0.00732727,0.00448076,0.01949411,0.01774138,0.01688528,-0.00378977,0.00989201,-0.00532088,0.00355572,-0.00029175,-0.00253306,-0.00017844,0.01705083,0.02282006,0.01542057,0.02470758,0.04590751,0.02285978,-0.02717784,-0.00197907,-0.00393852,0.00050549,0.00166234,0.01106520,0.01915379,0.07622733,0.02194871,0.07257640,0.00839881,-0.00653480,-0.00121168,0.00945753,0.01441337,0.00077000,0.02484072,0.09231979,0.05675151,0.02350450,0.08307768,0.02630379,0.00453096,0.00525840,0.01007769,0.00408388,0.00827689,0.05991768,-0.00769453,0, 00:00:06.5
67,-0.00481898,-0.00573709,0.00076690,-0.00022643,-0.00282422,-0.00751606,0.00443110,0.01989314,0.01816645,0.01781060,-0.00374774,0.01006680,-0.00555976,0.00351244,-0.00046956,-0.00288413,-0.00001258,0.01740310,0.02314628,0.01562000,0.02531215,0.04706252,0.02358326,-0.02812849,-0.00210897,-0.00439315,-0.00001783,0.00139900,0.01119039,0.01930427,0.07789282,0.02266940,0.07444635,0.00887256,-0.00694398,-0.00140269,0.00944877,0.01483035,0.00064605,0.02515021,0.09492390,0.05763294,0.02444191,0.08490372,0.02705652,0.00469889,0.00508496,0.01012493,0.00410898,0.00835680,0.06151000,-0.00750261,0, 00:00:06.6
68,-0.00483498,-0.00591633,0.00074990,-0.00021410,-0.00299176,-0.00785528,0.00439745,0.02029084,0.01852056,0.01878772,-0.00399930,0.01023819,-0.00575366,0.00345536,-0.00050500,-0.00322745,0.00008485,0.01739426,0.02367220,0.01582634,0.02570358,0.04838144,0.02421263,-0.02898780,-0.00225092,-0.00485193,-0.00052831,0.00109424,0.01130757,0.01955703,0.07964680,0.02335993,0.07644735,0.00946289,-0.00730795,-0.00159069,0.00938902,0.01516182,0.00049608,0.02564137,0.09779994,0.05908346,0.02545442,0.08690692,0.02778909,0.00484224,0.00494198,0.01017136,0.00416774,0.00846744,0.06304091,-0.00732946,0, 00:00:06.7
69,-0.00476786,-0.00609518,0.00071836,-0.00015910,-0.00318512,-0.00822137,0.00432076,0.02075078,0.01897233,0.01966397,-0.00432590,0.01039542,-0.00598792,0.00349551,-0.00070266,-0.00348063,0.00027145,0.01761914,0.02439271,0.01610088,0.02626452,0.04960480,0.02475061,-0.02984004,-0.00236955,-0.00531958,-0.00102987,0.00078446,0.01137973,0.01992140,0.08132958,0.02386345,0.07840451,0.01004713,-0.00761602,-0.00174627,0.00937481,0.01544074,0.00014668,0.02632499,0.10069531,0.06056137,0.02634802,0.08868810,0.02856366,0.00499658,0.00483378,0.01027322,0.00421446,0.00859111,0.06456970,-0.00721494,0, 00:00:06.8
70,-0.00472059,-0.00631582,0.00067934,-0.00021314,-0.00330350,-0.00813728,0.00430178,0.02119472,0.01918023,0.02029891,-0.00456248,0.01061558,-0.00614512,0.00355339,-0.00079009,-0.00381427,0.00028428,0.01772493,0.02481961,0.01652384,0.02716041,0.05079364,0.02551506,-0.03046002,-0.00255744,-0.00578832,-0.00149401,0.00059024,0.01142877,0.02011865,0.08303367,0.02458837,0.08041446,0.01069291,-0.00795483,-0.00189225,0.00944181,0.01564264,0.00002973,0.02693892,0.10341647,0.06202248,0.02714216,0.09061049,0.02934886,0.00511014,0.00480021,0.01035478,0.00429548,0.00869324,0.06615386,-0.00704845,0, 00:00:06.9
71,-0.00472630,-0.00662537,0.00068047,-0.00019475,-0.00357709,-0.00829611,0.00436662,0.02158323,0.01910737,0.02117645,-0.00453692,0.01087945,-0.00616971,0.00364658,-0.00099744,-0.00402100,0.00008986,0.01819969,0.02476869,0.01685857,0.02784480,0.05193678,0.02620194,-0.03099002,-0.00251254,-0.00624068,-0.00191958,0.00040090,0.01153648,0.02011250,0.08475897,0.02541842,0.08246583,0.01135007,-0.00826648,-0.00195953,0.00951044,0.01581529,0.00002440,0.02745583,0.10590437,0.06363640,0.02798730,0.09249035,0.03015607,0.00527330,0.00474865,0.01037403,0.00438956,0.00880922,0.06771640,-0.00714855,0, 00:00:07.0
72,-0.00452282,-0.00700828,0.00067799,-0.00019042,-0.00379119,-0.00853372,0.00445444,0.02194977,0.01892984,0.02111483,-0.00454968,0.01110208,-0.00621013,0.00380942,-0.00112835,-0.00407491,-0.00002634,0.01842535,0.02456161,0.01721439,0.02859570,0.05293807,0.02701676,-0.03167227,-0.00267833,-0.00661980,-0.00227584,0.00022122,0.01157052,0.02012790,0.08650769,0.02611068,0.08436057,0.01190580,-0.00860472,-0.00206121,0.00954977,0.01600362,0.00013246,0.02790444,0.10847300,0.06527209,0.02875382,0.09422665,0.03098971,0.00544363,0.00471125,0.01035661,0.00443249,0.00887224,0.06922752,-0.00720577,0, 00:00:07.1
73,-0.00495438,-0.00719326,0.00060900,-0.00023825,-0.00402285,-0.00888935,0.00447954,0.02221413,0.01870563,0.02108126,-0.00476102,0.01134608,-0.00640671,0.00396624,-0.00132236,-0.00428588,0.00010537,0.01862218,0.02447156,0.01746991,0.02916203,0.05399645,0.02792514,-0.03229730,-0.00285734,-0.00705741,-0.00261872,0.00003124,0.01137544,0.02012783,0.08831552,0.02667091,0.08618037,0.01246847,-0.00891460,-0.00217879,0.00958117,0.01606194,0.00002868,0.02829974,0.11115198,0.06673310,0.02957822,0.09596648,0.03179420,0.00560804,0.00466212,0.01035019,0.00443052,0.00890747,0.07073383,-0.00723805,0, 00:00:07.2
74,-0.00514463,-0.00736518,0.00054223,-0.00022189,-0.00413551,-0.00913761,0.00444845,0.02250188,0.01870723,0.02136406,-0.00513713,0.01160314,-0.00672019,0.00401551,-0.00148690,-0.00458589,0.00010348,0.01857514,0.02472965,0.01763773,0.02986946,0.05514032,0.02853915,-0.03299427,-0.00315935,-0.00743674,-0.00295321,-0.00027199,0.01130409,0.02025561,0.09021006,0.02722008,0.08799382,0.01313449,-0.00926076,-0.00227113,0.00962797,0.01616492,-0.00022436,0.02856020,0.11415096,0.06821285,0.03056475,0.09782431,0.03263696,0.00574981,0.00461502,0.01034556,0.00447127,0.00894624,0.07227162,-0.00734423,0, 00:00:07.3
75,-0.00511704,-0.00756828,0.00058949,-0.00031117,-0.00411072,-0.00925208,0.00441335,0.02284554,0.01863466,0.02177159,-0.00539125,0.01180253,-0.00695733,0.00396880,-0.00149765,-0.00488727,0.00029292,0.01855877,0.02491706,0.01809160,0.03059633,0.05625878,0.02930890,-0.03364202,-0.00341567,-0.00780606,-0.00322863,-0.00063044,0.01120085,0.02025071,0.09225566,0.02788407,0.08998005,0.01384961,-0.00951054,-0.00234311,0.00965760,0.01631917,-0.00052463,0.02894261,0.11724349,0.06947670,0.03161057,0.09977563,0.03348373,0.00587173,0.00460758,0.01040934,0.00457641,0.00903876,0.07378010,-0.00726043,0, 00:00:07.4
76,-0.00533430,-0.00790135,0.00058782,-0.00031180,-0.00420066,-0.00934808,0.00442773,0.02322891,0.01835366,0.02225423,-0.00571009,0.01206133,-0.00723396,0.00405218,-0.00157642,-0.00495660,0.00023022,0.01836172,0.02476855,0.01838989,0.03158521,0.05733221,0.03007244,-0.03431127,-0.00354683,-0.00815727,-0.00343541,-0.00087221,0.01113115,0.02009985,0.09437167,0.02859346,0.09205955,0.01462908,-0.00980980,-0.00239386,0.00969230,0.01645819,-0.00072768,0.02918880,0.12009069,0.07085933,0.03248236,0.10198658,0.03438422,0.00605803,0.00462555,0.01053976,0.00469863,0.00913474,0.07532115,-0.00751691,0, 00:00:07.5
77,-0.00531681,-0.00814122,0.00062142,-0.00035259,-0.00429630,-0.00961875,0.00445056,0.02365252,0.01783894,0.02268898,-0.00586363,0.01230679,-0.00733828,0.00426395,-0.00173064,-0.00554565,0.00011690,0.01865555,0.02427636,0.01857441,0.03234958,0.05842239,0.03098379,-0.03494830,-0.00372334,-0.00846376,-0.00365342,-0.00106239,0.01115851,0.01981312,0.09632353,0.02927067,0.09405743,0.01536410,-0.01010405,-0.00242347,0.00973207,0.01659442,-0.00072262,0.02937563,0.12261994,0.07193832,0.03331962,0.10388728,0.03528829,0.00621347,0.00464042,0.01064261,0.00483734,0.00923848,0.07673170,-0.00741850,0, 00:00:07.6
78,-0.00561061,-0.00850501,0.00054723,-0.00034566,-0.00438099,-0.00998303,0.00455530,0.02401233,0.01680872,0.02288020,-0.00576951,0.01258022,-0.00738804,0.00442887,-0.00179359,-0.00594729,0.00000329,0.01936848,0.02320039,0.01864086,0.03315610,0.05940470,0.03162797,-0.03556466,-0.00372374,-0.00874109,-0.00380514,-0.00127578,0.01094246,0.01928090,0.09818960,0.03009747,0.09616934,0.01606008,-0.01048839,-0.00246767,0.00977866,0.01675724,-0.00085250,0.02978962,0.12499136,0.07311801,0.03400943,0.10590275,0.03612560,0.00638276,0.00463881,0.01073307,0.00492959,0.00936765,0.07807305,-0.00719893,0, 00:00:07.7
79,-0.00653449,-0.00902913,0.00053603,-0.00030765,-0.00449642,-0.01029997,0.00463579,0.02429768,0.01528448,0.02272601,-0.00606135,0.01280606,-0.00748641,0.00457425,-0.00188871,-0.00620198,-0.00003213,0.01971233,0.02163326,0.01846443,0.03377583,0.06054063,0.03233402,-0.03653784,-0.00383835,-0.00899030,-0.00398824,-0.00150703,0.01064896,0.01849603,0.10006210,0.03073172,0.09849881,0.01674045,-0.01093037,-0.00252067,0.00982226,0.01680925,-0.00098012,0.03003380,0.12695792,0.07408231,0.03467704,0.10772919,0.03682246,0.00659371,0.00461035,0.01075690,0.00504744,0.00945038,0.07945132,-0.00716011,0, 00:00:07.8
80,-0.00690823,-0.00972743,0.00047088,-0.00039124,-0.00454540,-0.01060010,0.00480907,0.02447633,0.01186299,0.02167045,-0.00627880,0.01294807,-0.00770558,0.00455414,-0.00199639,-0.00638898,-0.00016620,0.01960986,0.01834728,0.01723328,0.03406966,0.06192256,0.03294060,-0.03813967,-0.00403696,-0.00923559,-0.00418273,-0.00167184,0.00994504,0.01627162,0.10215193,0.03114012,0.10040077,0.01707294,-0.01171528,-0.00264565,0.00983994,0.01673301,-0.00123377,0.02915546,0.12761109,0.07412650,0.03549666,0.10984997,0.03710663,0.00691501,0.00449333,0.01080112,0.00521411,0.00967030,0.08156957,-0.00687713,0, 00:00:07.9
81,-0.00685780,-0.01010737,0.00037308,-0.00052304,-0.00454963,-0.01079341,0.00489542,0.02467723,0.00681453,0.02007489,-0.00643302,0.01271089,-0.00799502,0.00444948,-0.00215602,-0.00653206,-0.00015493,0.01949951,0.01371213,0.01494094,0.03354944,0.06357349,0.03425326,-0.04073923,-0.00427931,-0.00952150,-0.00427967,-0.00186114,0.00896647,0.01251610,0.10601668,0.03125587,0.10139604,0.01608816,-0.01287688,-0.00281021,0.00977012,0.01666040,-0.00167689,0.02748716,0.12662539,0.07418537,0.03695459,0.11337516,0.03784120,0.00736114,0.00425733,0.01080784,0.00546267,0.01012102,0.08470929,-0.00580255,0, 00:00:08.0
82,-0.00667554,-0.01052932,0.00030376,-0.00064654,-0.00457654,-0.01090219,0.00506511,0.02494828,0.00151951,0.01817367,-0.00643294,0.01179153,-0.00826164,0.00445241,-0.00228091,-0.00659365,-0.00018350,0.01963469,0.00883679,0.01231118,0.03271342,0.06560214,0.03682075,-0.04396664,-0.00464126,-0.00973604,-0.00436645,-0.00200155,0.00782919,0.00836754,0.11115201,0.03149089,0.10176887,0.01361857,-0.01406369,-0.00302265,0.00963238,0.01662458,-0.00193659,0.02557464,0.12467841,0.07390834,0.03916492,0.11813360,0.03893480,0.00785052,0.00391918,0.01082959,0.00571019,0.01055676,0.08807036,-0.00366263,0, 00:00:08.1
83,-0.00690157,-0.01085870,0.00019439,-0.00079049,-0.00473355,-0.01086469,0.00516379,0.02520346,-0.00244029,0.01672612,-0.00657412,0.01092454,-0.00841799,0.00450246,-0.00230756,-0.00680955,-0.00043448,0.01969994,0.00520439,0.01028461,0.03218781,0.06731025,0.03866830,-0.04675876,-0.00484240,-0.00993457,-0.00441320,-0.00215622,0.00711415,0.00532238,0.11444596,0.03158425,0.10197965,0.01101300,-0.01512787,-0.00309501,0.00952902,0.01660007,-0.00198076,0.02379180,0.12240750,0.07385101,0.04106021,0.12165432,0.03963282,0.00824497,0.00354880,0.01082807,0.00592823,0.01081850,0.09067742,-0.00198291,0, 00:00:08.2
84,-0.00780214,-0.01108235,0.00018351,-0.00086017,-0.00481953,-0.01103855,0.00527960,0.02546191,-0.00404819,0.01669299,-0.00657276,0.01071963,-0.00850414,0.00471779,-0.00257853,-0.00717823,-0.00045461,0.02010817,0.00370912,0.00978564,0.03292746,0.06850793,0.03938626,-0.04834263,-0.00499488,-0.01003736,-0.00440029,-0.00240415,0.00689140,0.00444362,0.11669853,0.03182433,0.10260732,0.00966419,-0.01576471,-0.00307782,0.00953858,0.01661254,-0.00193459,0.02289996,0.12174217,0.07452161,0.04204698,0.12338724,0.03976284,0.00848578,0.00324229,0.01085323,0.00605349,0.01083411,0.09203296,-0.00131185,0, 00:00:08.3
85,-0.00784070,-0.01141408,0.00017421,-0.00088738,-0.00499122,-0.01127528,0.00537965,0.02568168,-0.00525153,0.01624296,-0.00668970,0.01079960,-0.00853665,0.00493785,-0.00272934,-0.00747270,-0.00068895,0.02031767,0.00246349,0.00980318,0.03403066,0.06966382,0.04000773,-0.04927298,-0.00503492,-0.01022448,-0.00442724,-0.00268933,0.00654619,0.00395278,0.11906797,0.03243428,0.10397355,0.00944309,-0.01621984,-0.00307297,0.00959116,0.01661221,-0.00177363,0.02266333,0.12287131,0.07608867,0.04261195,0.12464018,0.03986674,0.00861369,0.00295912,0.01088100,0.00610030,0.01071630,0.09305108,-0.00101298,0, 00:00:08.4
86,-0.00788909,-0.01192198,0.00013327,-0.00096005,-0.00523053,-0.01112288,0.00546998,0.02573236,-0.00801408,0.01573266,-0.00692445,0.01068596,-0.00866890,0.00492629,-0.00284690,-0.00754759,-0.00080344,0.02044884,-0.00021175,0.00868062,0.03477504,0.07110295,0.04100843,-0.05112093,-0.00522816,-0.01039621,-0.00447253,-0.00288200,0.00607939,0.00218908,0.12166272,0.03271404,0.10493757,0.00847337,-0.01710408,-0.00317177,0.00960807,0.01659189,-0.00193499,0.02174445,0.12256160,0.07665331,0.04340679,0.12662473,0.03998759,0.00885731,0.00265770,0.01086887,0.00617564,0.01067188,0.09481185,-0.00043779,0, 00:00:08.5
87,-0.00808491,-0.01224712,0.00014594,-0.00108246,-0.00528249,-0.01145802,0.00555519,0.02570782,-0.01260955,0.01420967,-0.00699356,0.01004248,-0.00897784,0.00479325,-0.00303558,-0.00746996,-0.00079366,0.02049401,-0.00399923,0.00657173,0.03446431,0.07305015,0.04271713,-0.05399161,-0.00552015,-0.01054708,-0.00450575,-0.00310283,0.00521655,-0.00087334,0.12540050,0.03313147,0.10517972,0.00596736,-0.01833919,-0.00335952,0.00955378,0.01660931,-0.00214694,0.02024681,0.12086020,0.07603270,0.04509420,0.12996846,0.04060843,0.00923171,0.00223033,0.01075648,0.00629106,0.01087045,0.09765612,0.00052391,0, 00:00:08.6
88,-0.00836083,-0.01252735,0.00011338,-0.00120197,-0.00541207,-0.01167827,0.00554965,0.02580541,-0.01574111,0.01324806,-0.00701495,0.00926094,-0.00930614,0.00471351,-0.00321374,-0.00761731,-0.00097234,0.02084542,-0.00605566,0.00486427,0.03406469,0.07470839,0.04395925,-0.05654334,-0.00579592,-0.01071444,-0.00457344,-0.00343279,0.00438537,-0.00288113,0.12806647,0.03358601,0.10518118,0.00347642,-0.01929852,-0.00349906,0.00948552,0.01663085,-0.00243156,0.01895155,0.11948062,0.07580799,0.04695232,0.13226272,0.04099308,0.00955115,0.00184727,0.01067086,0.00632122,0.01105101,0.09984762,0.00078609,0, 00:00:08.7
89,-0.00890295,-0.01273864,-0.00001158,-0.00135750,-0.00548482,-0.01182230,0.00552640,0.02600089,-0.01643223,0.01370746,-0.00729570,0.00886359,-0.00940809,0.00477588,-0.00324444,-0.00787785,-0.00139810,0.02088793,-0.00576350,0.00423498,0.03465442,0.07595753,0.04429586,-0.05779266,-0.00603041,-0.01089096,-0.00463316,-0.00379992,0.00395027,-0.00297158,0.12972675,0.03400197,0.10530894,0.00222149,-0.01981156,-0.00354040,0.00948761,0.01660972,-0.00246838,0.01856342,0.12012904,0.07604023,0.04829025,0.13312379,0.04088104,0.00967386,0.00166398,0.01068193,0.00634536,0.01097192,0.10112888,0.00068797,0, 00:00:08.8
90,-0.00914178,-0.01293448,-0.00009945,-0.00143178,-0.00565731,-0.01202902,0.00547649,0.02624204,-0.01682552,0.01438077,-0.00734712,0.00895243,-0.00942328,0.00492939,-0.00338516,-0.00787905,-0.00146777,0.02090020,-0.00523292,0.00416522,0.03544904,0.07740579,0.04467329,-0.05791785,-0.00624539,-0.01108224,-0.00465546,-0.00412984,0.00382165,-0.00268930,0.13146493,0.03481999,0.10606226,0.00220553,-0.01994003,-0.00351841,0.00958924,0.01660029,-0.00268211,0.01878948,0.12225517,0.07701194,0.04896127,0.13396999,0.04106796,0.00968699,0.00160297,0.01079209,0.00634380,0.01086758,0.10231756,0.00052980,0, 00:00:08.9
91,-0.00949934,-0.01322202,-0.00005992,-0.00144887,-0.00575653,-0.01206550,0.00544877,0.02642788,-0.01764596,0.01440911,-0.00743477,0.00905543,-0.00945592,0.00514295,-0.00352531,-0.00807788,-0.00141270,0.02114901,-0.00540813,0.00397235,0.03634293,0.07884247,0.04507651,-0.05804948,-0.00629824,-0.01126862,-0.00466633,-0.00443788,0.00355475,-0.00280759,0.13301729,0.03576294,0.10704122,0.00216597,-0.02011466,-0.00350611,0.00970878,0.01657923,-0.00282632,0.01900343,0.12408116,0.07744212,0.04956695,0.13506946,0.04128941,0.00973722,0.00155233,0.01084523,0.00629969,0.01075795,0.10375071,0.00012879,0, 00:00:09.0
92,-0.00994828,-0.01371089,0.00006744,-0.00151670,-0.00582167,-0.01200792,0.00541059,0.02649123,-0.02028095,0.01410609,-0.00769183,0.00893021,-0.00955346,0.00519953,-0.00352917,-0.00784588,-0.00114917,0.02122439,-0.00752057,0.00297482,0.03666249,0.08031023,0.04562879,-0.05927376,-0.00645447,-0.01149613,-0.00471763,-0.00470456,0.00291468,-0.00436055,0.13492677,0.03632959,0.10733592,0.00138574,-0.02072831,-0.00352102,0.00981356,0.01654720,-0.00298146,0.01848684,0.12436631,0.07798052,0.05063215,0.13703322,0.04135406,0.00993192,0.00146852,0.01081658,0.00625521,0.01079308,0.10597238,-0.00055598,0, 00:00:09.1
93,-0.01062619,-0.01422714,0.00010317,-0.00168381,-0.00589548,-0.01205181,0.00540803,0.02643181,-0.02473762,0.01328237,-0.00769057,0.00833535,-0.00979347,0.00514372,-0.00355249,-0.00782423,-0.00138241,0.02153189,-0.01133185,0.00117817,0.03649293,0.08228136,0.04722087,-0.06144166,-0.00663462,-0.01165713,-0.00482552,-0.00491326,0.00180795,-0.00734686,0.13786823,0.03680705,0.10729714,-0.00050114,-0.02174782,-0.00367776,0.00978952,0.01646437,-0.00335537,0.01705062,0.12350407,0.07790905,0.05238201,0.14027752,0.04195366,0.01018625,0.00121168,0.01070017,0.00627415,0.01101119,0.10915841,-0.00026519,0, 00:00:09.2
94,-0.01104600,-0.01455311,0.00000939,-0.00190393,-0.00591385,-0.01192585,0.00541161,0.02630847,-0.02991224,0.01199356,-0.00783720,0.00723213,-0.01016905,0.00501777,-0.00382364,-0.00828875,-0.00180179,0.02142458,-0.01590073,-0.00123219,0.03579821,0.08467361,0.05011843,-0.06427994,-0.00682640,-0.01183549,-0.00485959,-0.00514656,0.00059249,-0.01118254,0.14274912,0.03735669,0.10652208,-0.00358997,-0.02300376,-0.00384513,0.00969182,0.01631059,-0.00358747,0.01509745,0.12154835,0.07803459,0.05500558,0.14498055,0.04298197,0.01046233,0.00083638,0.01059859,0.00636433,0.01138078,0.11287714,0.00167992,0, 00:00:09.3
95,-0.01135307,-0.01487616,-0.00002931,-0.00208431,-0.00594225,-0.01181030,0.00536814,0.02623072,-0.03398922,0.01063991,-0.00804608,0.00623773,-0.01039744,0.00485556,-0.00399591,-0.00843229,-0.00235339,0.02117657,-0.01941731,-0.00319508,0.03530417,0.08663079,0.05248644,-0.06680158,-0.00707296,-0.01199246,-0.00489774,-0.00552092,-0.00051289,-0.01412022,0.14648178,0.03805896,0.10575551,-0.00666866,-0.02403187,-0.00402485,0.00963271,0.01625023,-0.00406050,0.01329567,0.11925003,0.07727487,0.05732977,0.14906821,0.04375834,0.01077657,0.00042880,0.01046750,0.00640535,0.01173022,0.11598808,0.00335857,0, 00:00:09.4
96,-0.01189221,-0.01505144,-0.00006260,-0.00215791,-0.00604595,-0.01195981,0.00537494,0.02625423,-0.03537934,0.01122388,-0.00838978,0.00611655,-0.01058716,0.00492837,-0.00417201,-0.00872129,-0.00279550,0.02135456,-0.02022979,-0.00377363,0.03598610,0.08836395,0.05361218,-0.06807968,-0.00721316,-0.01219378,-0.00497695,-0.00584847,-0.00091676,-0.01474191,0.14872013,0.03892271,0.10562067,-0.00867361,-0.02453428,-0.00418343,0.00965518,0.01617399,-0.00438851,0.01243031,0.11849720,0.07717182,0.05867052,0.15116844,0.04430197,0.01092945,0.00013805,0.01039971,0.00635803,0.01182741,0.11770779,0.00411088,0, 00:00:09.5
97,-0.01246302,-0.01522699,0.00004046,-0.00216088,-0.00610647,-0.01236329,0.00532468,0.02627739,-0.03500980,0.01213136,-0.00872170,0.00629959,-0.01056499,0.00516922,-0.00450092,-0.00894796,-0.00315910,0.02154364,-0.01932530,-0.00266332,0.03767237,0.08998606,0.05451836,-0.06747670,-0.00735492,-0.01245211,-0.00504567,-0.00612976,-0.00109672,-0.01375700,0.15081653,0.04033864,0.10695083,-0.00883453,-0.02447249,-0.00422894,0.00974932,0.01605356,-0.00446727,0.01275492,0.12102969,0.07888085,0.05882451,0.15226309,0.04504306,0.01073899,0.00002257,0.01032470,0.00622504,0.01171981,0.11817195,0.00427174,0, 00:00:09.6
98,-0.01264438,-0.01549279,0.00002185,-0.00220570,-0.00624123,-0.01268837,0.00530398,0.02626301,-0.03366559,0.01377443,-0.00921935,0.00690054,-0.01047432,0.00532830,-0.00477110,-0.00892016,-0.00360498,0.02146658,-0.01769664,-0.00093788,0.03962080,0.09136490,0.05527430,-0.06624006,-0.00742797,-0.01272828,-0.00517445,-0.00643522,-0.00101239,-0.01188721,0.15254420,0.04190104,0.10897027,-0.00799082,-0.02430112,-0.00420079,0.00988126,0.01586767,-0.00466353,0.01385135,0.12446820,0.08062964,0.05843312,0.15263338,0.04570106,0.01050990,-0.00000145,0.01022398,0.00602869,0.01147274,0.11808059,0.00405292,0, 00:00:09.7
99,-0.01327737,-0.01588269,0.00003152,-0.00236669,-0.00632979,-0.01279483,0.00524987,0.02615367,-0.03325310,0.01512624,-0.00965918,0.00748902,-0.01050721,0.00536093,-0.00498176,-0.00938170,-0.00374035,0.02120044,-0.01719558,0.00019680,0.04146640,0.09298800,0.05625311,-0.06571705,-0.00754477,-0.01305186,-0.00536270,-0.00675402,-0.00107582,-0.01085552,0.15448168,0.04319978,0.11053459,-0.00678737,-0.02446967,-0.00432060,0.00996614,0.01568427,-0.00493665,0.01482564,0.12755512,0.08238377,0.05794214,0.15292333,0.04616285,0.01036647,-0.00002486,0.01012175,0.00588144,0.01125118,0.11837949,0.00405684,0, 00:00:09.8
100,-0.01343301,-0.01637230,-0.00010372,-0.00258884,-0.00659784,-0.01274648,0.00522468,0.02585776,-0.03596548,0.01543490,-0.01018267,0.00774790,-0.01061453,0.00524492,-0.00532716,-0.00975008,-0.00384020,0.02133990,-0.01980815,0.00004346,0.04258797,0.09536486,0.05854300,-0.06651493,-0.00795365,-0.01333828,-0.00552988,-0.00702319,-0.00201594,-0.01251292,0.15825556,0.04432425,0.11181979,-0.00688464,-0.02516939,-0.00451667,0.00996643,0.01551894,-0.00521367,0.01469533,0.12810728,0.08408817,0.05863507,0.15472403,0.04742769,0.01041848,-0.00016972,0.01001398,0.00584618,0.01137387,0.12031090,0.00475760,0, 00:00:09.9
101,-0.01380135,-0.01678094,-0.00022152,-0.00284427,-0.00663996,-0.01273113,0.00524198,0.02556475,-0.04079153,0.01443744,-0.01033546,0.00719872,-0.01088356,0.00515118,-0.00569914,-0.01012308,-0.00393402,0.02111323,-0.02447439,-0.00179875,0.04266871,0.09804141,0.06205803,-0.06894629,-0.00844825,-0.01362939,-0.00561863,-0.00724878,-0.00323998,-0.01577656,0.16402462,0.04521252,0.11209520,-0.00933895,-0.02646022,-0.00474043,0.00987888,0.01538266,-0.00555167,0.01326595,0.12515144,0.08495272,0.06058927,0.15806089,0.04879627,0.01070272,-0.00055983,0.00980755,0.00584882,0.01180397,0.12308508,0.00664278,0, 00:00:10.0
102,-0.01422356,-0.01695208,-0.00019203,-0.00321400,-0.00669819,-0.01273344,0.00521172,0.02531221,-0.04648600,0.01268805,-0.01028288,0.00606982,-0.01111980,0.00500427,-0.00597318,-0.01002673,-0.00419083,0.02100201,-0.02995648,-0.00445445,0.04228073,0.10038395,0.06546146,-0.07200225,-0.00884913,-0.01392846,-0.00576545,-0.00739794,-0.00459886,-0.01958149,0.17010149,0.04592191,0.11143974,-0.01325057,-0.02793873,-0.00494717,0.00981275,0.01521112,-0.00601632,0.01124700,0.12069029,0.08491663,0.06321630,0.16145897,0.04961059,0.01108481,-0.00107444,0.00953916,0.00588164,0.01229539,0.12590814,0.00842749,0, 00:00:10.1
103,-0.01417400,-0.01730082,-0.00032038,-0.00347498,-0.00677059,-0.01302177,0.00531198,0.02507890,-0.05232673,0.01094913,-0.00998057,0.00492989,-0.01126562,0.00503797,-0.00624297,-0.01008897,-0.00437820,0.02108519,-0.03528240,-0.00703120,0.04155954,0.10229575,0.06770405,-0.07530650,-0.00909878,-0.01423961,-0.00589542,-0.00754610,-0.00569488,-0.02323847,0.17437539,0.04640735,0.11027917,-0.01764826,-0.02947216,-0.00511813,0.00973383,0.01501855,-0.00649517,0.00886339,0.11462255,0.08364127,0.06535569,0.16465680,0.04989287,0.01151044,-0.00163668,0.00926887,0.00591374,0.01279167,0.12860638,0.00961694,0, 00:00:10.2
104,-0.01450644,-0.01771083,-0.00038844,-0.00359903,-0.00690110,-0.01324141,0.00545340,0.02480998,-0.05702469,0.00954959,-0.01004231,0.00424386,-0.01129747,0.00504391,-0.00648776,-0.01021992,-0.00444849,0.02121687,-0.03902786,-0.00862833,0.04124076,0.10393693,0.06931464,-0.07813416,-0.00926138,-0.01454558,-0.00598765,-0.00776706,-0.00639057,-0.02548472,0.17762326,0.04688141,0.10969345,-0.02127822,-0.03087095,-0.00528673,0.00967327,0.01481153,-0.00666608,0.00684875,0.10962801,0.08319902,0.06653174,0.16690199,0.04988041,0.01185021,-0.00211274,0.00894932,0.00582556,0.01316257,0.13044529,0.00982816,0, 00:00:10.3
105,-0.01491726,-0.01819505,-0.00040335,-0.00378397,-0.00701344,-0.01323857,0.00544523,0.02445420,-0.05969217,0.00879578,-0.01037839,0.00378425,-0.01148625,0.00492985,-0.00681324,-0.01032261,-0.00475193,0.02106778,-0.04064308,-0.00951116,0.04111729,0.10503721,0.07015801,-0.07958586,-0.00936458,-0.01481036,-0.00613874,-0.00802280,-0.00679512,-0.02620044,0.17954579,0.04761960,0.10946537,-0.02346409,-0.03175239,-0.00538798,0.00967382,0.01457170,-0.00683764,0.00588178,0.10740165,0.08353868,0.06653468,0.16772665,0.04943604,0.01198055,-0.00245088,0.00861921,0.00564497,0.01324929,0.13109575,0.00901799,0, 00:00:10.4
106,-0.01538930,-0.01858119,-0.00039151,-0.00409090,-0.00707475,-0.01333290,0.00543131,0.02401185,-0.06170813,0.00873216,-0.01051009,0.00371172,-0.01160525,0.00465919,-0.00704970,-0.01027812,-0.00524983,0.02061408,-0.04143928,-0.00978552,0.04143114,0.10645653,0.07112986,-0.08034874,-0.00955772,-0.01509336,-0.00629587,-0.00823326,-0.00735667,-0.02645526,0.18165900,0.04854651,0.10973513,-0.02446856,-0.03244807,-0.00558706,0.00972881,0.01428989,-0.00727230,0.00560930,0.10670498,0.08450053,0.06620525,0.16824186,0.04934016,0.01201074,-0.00272861,0.00834502,0.00547651,0.01328303,0.13134092,0.00801895,0, 00:00:10.5
107,-0.01542630,-0.01872130,-0.00045345,-0.00440686,-0.00701919,-0.01359948,0.00534793,0.02357632,-0.06558448,0.00788583,-0.01073910,0.00367918,-0.01176458,0.00445109,-0.00727133,-0.01054116,-0.00550764,0.01990318,-0.04390495,-0.01098031,0.04142309,0.10821271,0.07236658,-0.08214757,-0.00990400,-0.01539830,-0.00639712,-0.00845412,-0.00827151,-0.02805366,0.18421638,0.04914629,0.11001464,-0.02588525,-0.03351390,-0.00584402,0.00974176,0.01388844,-0.00782605,0.00476923,0.10517151,0.08481511,0.06613225,0.16973349,0.04915387,0.01215032,-0.00300840,0.00812205,0.00539959,0.01348786,0.13231327,0.00708947,0, 00:00:10.6
108,-0.01523857,-0.01915644,-0.00050325,-0.00467879,-0.00700439,-0.01356565,0.00531094,0.02323997,-0.06948021,0.00624200,-0.01083475,0.00333854,-0.01192295,0.00422950,-0.00761829,-0.01043067,-0.00574030,0.01916985,-0.04637741,-0.01230375,0.04112214,0.10974347,0.07363319,-0.08423619,-0.01028223,-0.01569184,-0.00645769,-0.00869164,-0.00923076,-0.02978971,0.18674308,0.04986486,0.11031793,-0.02765492,-0.03455276,-0.00609910,0.00973762,0.01343726,-0.00838309,0.00354568,0.10347168,0.08517417,0.06602199,0.17128095,0.04891814,0.01235037,-0.00327910,0.00785208,0.00532104,0.01372964,0.13355133,0.00640914,0, 00:00:10.7
109,-0.01533326,-0.01960639,-0.00051706,-0.00498558,-0.00708355,-0.01355606,0.00525055,0.02298020,-0.07205503,0.00536588,-0.01102279,0.00325790,-0.01191135,0.00405813,-0.00784263,-0.01043166,-0.00608922,0.01868987,-0.04759412,-0.01277954,0.04133138,0.11079301,0.07472142,-0.08504483,-0.01053615,-0.01593228,-0.00649558,-0.00886799,-0.00997910,-0.03044002,0.18894456,0.05091522,0.11071526,-0.02872051,-0.03523395,-0.00625757,0.00981605,0.01300607,-0.00858674,0.00301266,0.10305483,0.08609169,0.06558651,0.17191759,0.04872437,0.01245867,-0.00345892,0.00760559,0.00521782,0.01377169,0.13411577,0.00557345,0, 00:00:10.8
110,-0.01580201,-0.01990511,-0.00056439,-0.00519272,-0.00723181,-0.01356905,0.00529116,0.02283105,-0.07493787,0.00504190,-0.01117359,0.00336479,-0.01191819,0.00404720,-0.00802474,-0.01023964,-0.00665251,0.01847926,-0.04932287,-0.01332102,0.04174808,0.11214785,0.07606061,-0.08610611,-0.01076177,-0.01617348,-0.00647939,-0.00897141,-0.01054704,-0.03136203,0.19140166,0.05194249,0.11108426,-0.02984630,-0.03594751,-0.00633225,0.00989597,0.01261381,-0.00888792,0.00252040,0.10205598,0.08656842,0.06501308,0.17320338,0.04881788,0.01255895,-0.00363595,0.00737127,0.00506313,0.01386579,0.13497782,0.00479294,0, 00:00:10.9
111,-0.01635809,-0.02003509,-0.00070529,-0.00536914,-0.00724093,-0.01352942,0.00546014,0.02263303,-0.08005283,0.00344987,-0.01131937,0.00287333,-0.01201667,0.00403405,-0.00824902,-0.00989523,-0.00683783,0.01847663,-0.05353459,-0.01542667,0.04088543,0.11429498,0.07874101,-0.08863812,-0.01085430,-0.01642857,-0.00640064,-0.00907230,-0.01139343,-0.03448854,0.19572875,0.05285172,0.11081532,-0.03292020,-0.03712267,-0.00641616,0.00990467,0.01226035,-0.00921575,0.00101731,0.09855556,0.08609711,0.06548984,0.17648335,0.04966967,0.01289989,-0.00397702,0.00715576,0.00491283,0.01424537,0.13743828,0.00511402,0, 00:00:11.0
112,-0.01675448,-0.02046143,-0.00078765,-0.00550964,-0.00725215,-0.01370866,0.00555988,0.02235688,-0.08557663,0.00112534,-0.01124209,0.00203980,-0.01223089,0.00379290,-0.00847842,-0.00974973,-0.00709559,0.01794126,-0.05822797,-0.01792090,0.03954448,0.11690824,0.08247846,-0.09191209,-0.01104590,-0.01665268,-0.00638758,-0.00919220,-0.01253701,-0.03811062,0.20105164,0.05377723,0.11056618,-0.03661630,-0.03857228,-0.00657273,0.00991457,0.01187908,-0.00966461,-0.00064844,0.09480587,0.08595158,0.06682411,0.18064734,0.05078391,0.01325872,-0.00439913,0.00687690,0.00480173,0.01467377,0.14010261,0.00611886,0, 00:00:11.1
113,-0.01704475,-0.02074938,-0.00093712,-0.00579339,-0.00734515,-0.01377025,0.00552429,0.02206760,-0.09095347,-0.00091891,-0.01115916,0.00117553,-0.01249722,0.00338435,-0.00879121,-0.00968517,-0.00752011,0.01756376,-0.06263564,-0.02019225,0.03873656,0.11944746,0.08589409,-0.09536584,-0.01128594,-0.01688586,-0.00639769,-0.00931218,-0.01380069,-0.04161302,0.20586208,0.05447478,0.11015654,-0.04041245,-0.04005050,-0.00674775,0.00992166,0.01158043,-0.01006870,-0.00241093,0.09118152,0.08543586,0.06814579,0.18456504,0.05178307,0.01364663,-0.00492048,0.00661863,0.00472455,0.01515853,0.14246851,0.00685774,0, 00:00:11.2
114,-0.01738309,-0.02103115,-0.00097890,-0.00612782,-0.00725543,-0.01382760,0.00547840,0.02182859,-0.09461656,-0.00181956,-0.01115236,0.00067525,-0.01262539,0.00301655,-0.00915643,-0.01006936,-0.00774865,0.01722693,-0.06521133,-0.02165811,0.03841553,0.12138207,0.08797440,-0.09792490,-0.01152818,-0.01710008,-0.00640250,-0.00949574,-0.01485789,-0.04350546,0.20938088,0.05521151,0.10995380,-0.04377225,-0.04114846,-0.00691749,0.00994187,0.01122627,-0.01035907,-0.00390915,0.08812604,0.08503675,0.06883462,0.18716148,0.05231235,0.01395751,-0.00536879,0.00633256,0.00459345,0.01544330,0.14409265,0.00688631,0, 00:00:11.3
115,-0.01759115,-0.02117277,-0.00103087,-0.00649363,-0.00727362,-0.01403580,0.00535859,0.02163696,-0.09622966,-0.00170180,-0.01148358,0.00082299,-0.01274050,0.00268991,-0.00936242,-0.01011367,-0.00802300,0.01673843,-0.06578928,-0.02178756,0.03867216,0.12334440,0.08940504,-0.09927747,-0.01184206,-0.01728522,-0.00640776,-0.00969272,-0.01555212,-0.04360567,0.21229707,0.05613969,0.11052746,-0.04546660,-0.04187923,-0.00703735,0.01007022,0.01089486,-0.01079479,-0.00429345,0.08758315,0.08529323,0.06875130,0.18851322,0.05254471,0.01412353,-0.00566817,0.00611541,0.00446747,0.01557074,0.14494438,0.00594340,0, 00:00:11.4
116,-0.01783556,-0.02151012,-0.00104258,-0.00667871,-0.00736343,-0.01420861,0.00526664,0.02143500,-0.09814423,-0.00171879,-0.01169501,0.00109144,-0.01279655,0.00255726,-0.00958016,-0.01014625,-0.00830270,0.01617996,-0.06692624,-0.02184397,0.03918610,0.12493848,0.09122979,-0.10017495,-0.01205020,-0.01748228,-0.00635911,-0.00981981,-0.01617390,-0.04395138,0.21593897,0.05736066,0.11182564,-0.04592284,-0.04249554,-0.00706580,0.01022461,0.01060506,-0.01098955,-0.00446107,0.08795941,0.08643255,0.06873795,0.18964586,0.05297985,0.01422983,-0.00580977,0.00593302,0.00432964,0.01571375,0.14614545,0.00522844,0, 00:00:11.5
117,-0.01808164,-0.02179207,-0.00113634,-0.00690666,-0.00747607,-0.01457269,0.00529069,0.02116170,-0.10155913,-0.00224176,-0.01189150,0.00121570,-0.01280139,0.00247726,-0.00972277,-0.01017290,-0.00856231,0.01596365,-0.06996730,-0.02263098,0.03956822,0.12689757,0.09368130,-0.10185672,-0.01221235,-0.01767388,-0.00626371,-0.00983885,-0.01705309,-0.04559597,0.22031648,0.05840409,0.11285418,-0.04691257,-0.04342827,-0.00708646,0.01036034,0.01029344,-0.01116092,-0.00535385,0.08655123,0.08717006,0.06901488,0.19110849,0.05367681,0.01449724,-0.00602142,0.00576099,0.00417978,0.01600911,0.14819932,0.00463591,0, 00:00:11.6
118,-0.01905772,-0.02202701,-0.00122310,-0.00725543,-0.00749262,-0.01479105,0.00534125,0.02083122,-0.10538478,-0.00306655,-0.01191393,0.00117051,-0.01292274,0.00226373,-0.01002263,-0.01026990,-0.00910488,0.01599057,-0.07349810,-0.02374651,0.03982591,0.12852955,0.09606469,-0.10399316,-0.01247048,-0.01786745,-0.00621865,-0.00988753,-0.01809284,-0.04760506,0.22404835,0.05909251,0.11372629,-0.04845792,-0.04461110,-0.00719793,0.01044594,0.01007027,-0.01136884,-0.00652620,0.08413515,0.08753242,0.06955489,0.19232330,0.05419305,0.01478462,-0.00637844,0.00548959,0.00405546,0.01623430,0.15004581,0.00408273,0, 00:00:11.7
119,-0.01961077,-0.02219917,-0.00134968,-0.00759091,-0.00745766,-0.01487685,0.00529001,0.02053669,-0.10824810,-0.00373908,-0.01196976,0.00108884,-0.01310855,0.00192899,-0.01007684,-0.01045249,-0.00973328,0.01545927,-0.07557052,-0.02434514,0.04018005,0.12979978,0.09782514,-0.10577803,-0.01275717,-0.01806679,-0.00622535,-0.00995164,-0.01903070,-0.04868727,0.22672559,0.05988108,0.11450221,-0.04978558,-0.04574751,-0.00729418,0.01052163,0.00982452,-0.01162999,-0.00762786,0.08282967,0.08871451,0.06953223,0.19305995,0.05414898,0.01497031,-0.00672012,0.00524133,0.00394421,0.01634301,0.15090719,0.00317636,0, 00:00:11.8
120,-0.01997172,-0.02219084,-0.00145125,-0.00789201,-0.00747777,-0.01523405,0.00514375,0.02038037,-0.11024410,-0.00398893,-0.01212913,0.00114617,-0.01330999,0.00150233,-0.01033485,-0.01054737,-0.00986584,0.01498951,-0.07659358,-0.02464893,0.04050514,0.13123184,0.09956804,-0.10716861,-0.01311354,-0.01832858,-0.00622530,-0.01012196,-0.01991717,-0.04915562,0.22961091,0.06069256,0.11534379,-0.05062008,-0.04667041,-0.00738673,0.01057344,0.00972352,-0.01196130,-0.00814493,0.08298403,0.08950404,0.06926505,0.19408627,0.05429681,0.01510240,-0.00703064,0.00507141,0.00384055,0.01645542,0.15169789,0.00243684,0, 00:00:11.9
121,-0.02071724,-0.02225084,-0.00161081,-0.00818931,-0.00728697,-0.01542290,0.00500252,0.02023224,-0.11356331,-0.00443536,-0.01227207,0.00101971,-0.01344283,0.00122019,-0.01053711,-0.01064585,-0.00989633,0.01448776,-0.07933316,-0.02576302,0.04077216,0.13327682,0.10213199,-0.10919914,-0.01361991,-0.01854049,-0.00615750,-0.01028210,-0.02093449,-0.05093664,0.23364256,0.06134649,0.11596686,-0.05229049,-0.04783444,-0.00753187,0.01064857,0.00962814,-0.01233574,-0.00916677,0.08147985,0.08983503,0.06968068,0.19590215,0.05489209,0.01531067,-0.00731048,0.00494714,0.00374861,0.01681548,0.15357044,0.00264992,0, 00:00:12.0
122,-0.02127910,-0.02231441,-0.00174239,-0.00847683,-0.00710847,-0.01557519,0.00488777,0.02006290,-0.11772113,-0.00472299,-0.01226244,0.00058739,-0.01354447,0.00092057,-0.01068544,-0.01083362,-0.01010776,0.01402298,-0.08305928,-0.02731261,0.04074942,0.13547929,0.10516857,-0.11149287,-0.01393032,-0.01878236,-0.00612155,-0.01035688,-0.02211272,-0.05336070,0.23847716,0.06205210,0.11681613,-0.05478443,-0.04908632,-0.00760801,0.01072327,0.00949118,-0.01258633,-0.01053025,0.07838854,0.08992748,0.07082763,0.19834180,0.05566972,0.01561517,-0.00767237,0.00485075,0.00368865,0.01729447,0.15584944,0.00305953,0, 00:00:12.1
123,-0.02157087,-0.02270301,-0.00188943,-0.00869731,-0.00719896,-0.01543791,0.00478955,0.02000635,-0.12046636,-0.00496959,-0.01242422,0.00029534,-0.01360159,0.00049016,-0.01096730,-0.01071728,-0.01045040,0.01371279,-0.08526765,-0.02805553,0.04095196,0.13681309,0.10750945,-0.11316989,-0.01407564,-0.01902574,-0.00606459,-0.01034636,-0.02265934,-0.05447423,0.24206032,0.06276322,0.11749741,-0.05675679,-0.05012418,-0.00765648,0.01086678,0.00942594,-0.01293853,-0.01142803,0.07549785,0.09034228,0.07136584,0.19974515,0.05603502,0.01579248,-0.00802056,0.00477830,0.00361596,0.01759533,0.15707889,0.00320779,0, 00:00:12.2
124,-0.02227039,-0.02298979,-0.00190423,-0.00901699,-0.00735781,-0.01544344,0.00479577,0.01987672,-0.12242977,-0.00514601,-0.01272666,0.00044159,-0.01357044,0.00035785,-0.01141014,-0.01051472,-0.01082972,0.01366258,-0.08649944,-0.02813595,0.04151656,0.13834181,0.10957075,-0.11398563,-0.01415663,-0.01923913,-0.00609305,-0.01034731,-0.02318140,-0.05474004,0.24505605,0.06363269,0.11840433,-0.05771299,-0.05075476,-0.00771508,0.01101953,0.00925579,-0.01312798,-0.01142363,0.07452680,0.09144115,0.07096326,0.20079559,0.05640429,0.01582650,-0.00829694,0.00473726,0.00345773,0.01777118,0.15754846,0.00286885,0, 00:00:12.3
125,-0.02268093,-0.02331323,-0.00192980,-0.00925301,-0.00743775,-0.01589341,0.00475151,0.01959350,-0.12415891,-0.00525756,-0.01311505,0.00087475,-0.01369886,0.00010728,-0.01181015,-0.01063465,-0.01124664,0.01347445,-0.08734148,-0.02818050,0.04227485,0.14013235,0.11157484,-0.11456588,-0.01428509,-0.01955093,-0.00613856,-0.01040580,-0.02392791,-0.05474839,0.24816549,0.06471312,0.11970539,-0.05800579,-0.05133037,-0.00787763,0.01115344,0.00906648,-0.01335221,-0.01121422,0.07447419,0.09296074,0.07049572,0.20204596,0.05695739,0.01576018,-0.00857851,0.00462062,0.00329274,0.01790572,0.15811080,0.00232301,0, 00:00:12.4
126,-0.02282061,-0.02338915,-0.00198314,-0.00958076,-0.00750036,-0.01625178,0.00459567,0.01929085,-0.12586889,-0.00561825,-0.01366741,0.00136085,-0.01384072,-0.00029961,-0.01198051,-0.01062299,-0.01172655,0.01320978,-0.08813429,-0.02809761,0.04281680,0.14195322,0.11373778,-0.11538105,-0.01468304,-0.01983362,-0.00619714,-0.01054810,-0.02460593,-0.05475169,0.25134709,0.06566282,0.12108698,-0.05816478,-0.05193869,-0.00802549,0.01127625,0.00895088,-0.01370311,-0.01102588,0.07486427,0.09438559,0.07020618,0.20302808,0.05752454,0.01565970,-0.00890655,0.00447225,0.00315912,0.01806463,0.15867569,0.00211075,0, 00:00:12.5
127,-0.02348697,-0.02345664,-0.00211882,-0.00993415,-0.00751961,-0.01645002,0.00443009,0.01899855,-0.12801042,-0.00592008,-0.01406694,0.00183912,-0.01402212,-0.00063011,-0.01217484,-0.01061094,-0.01196362,0.01260111,-0.08952777,-0.02804602,0.04368563,0.14375927,0.11567687,-0.11614811,-0.01500035,-0.02005179,-0.00616026,-0.01064365,-0.02550941,-0.05526513,0.25472316,0.06675208,0.12287216,-0.05820367,-0.05259383,-0.00816872,0.01139224,0.00879991,-0.01410763,-0.01086390,0.07531136,0.09609535,0.06986968,0.20446584,0.05814395,0.01561993,-0.00921408,0.00440871,0.00306022,0.01826650,0.15947798,0.00173878,0, 00:00:12.6
128,-0.02390026,-0.02365273,-0.00216435,-0.01027839,-0.00758889,-0.01635700,0.00433537,0.01880271,-0.13133925,-0.00619120,-0.01428607,0.00240996,-0.01418212,-0.00089029,-0.01250869,-0.01065762,-0.01224364,0.01191463,-0.09228526,-0.02860336,0.04437356,0.14571194,0.11798774,-0.11701205,-0.01528902,-0.02031387,-0.00612205,-0.01067236,-0.02645784,-0.05684907,0.25857022,0.06774916,0.12453568,-0.05833809,-0.05335394,-0.00828009,0.01152819,0.00868366,-0.01434657,-0.01130282,0.07495047,0.09763940,0.06956756,0.20618431,0.05866369,0.01565773,-0.00947136,0.00437151,0.00303745,0.01854768,0.16090056,0.00186553,0, 00:00:12.7
129,-0.02391790,-0.02363812,-0.00229423,-0.01060322,-0.00748664,-0.01626202,0.00434980,0.01866184,-0.13521144,-0.00670613,-0.01439031,0.00292318,-0.01426039,-0.00114213,-0.01273851,-0.01071559,-0.01262219,0.01191870,-0.09581722,-0.02947187,0.04522772,0.14769176,0.12054174,-0.11831060,-0.01551062,-0.02058240,-0.00608165,-0.01056048,-0.02744241,-0.05874826,0.26262423,0.06875402,0.12605673,-0.05882000,-0.05431651,-0.00832175,0.01164382,0.00864345,-0.01467887,-0.01195272,0.07428446,0.09939784,0.06954399,0.20792869,0.05929128,0.01584687,-0.00978412,0.00435299,0.00299073,0.01896997,0.16278422,0.00187655,0, 00:00:12.8
130,-0.02438940,-0.02353811,-0.00242475,-0.01082201,-0.00756456,-0.01633497,0.00428024,0.01856860,-0.13675658,-0.00648406,-0.01462382,0.00336914,-0.01421115,-0.00129257,-0.01298703,-0.01082048,-0.01296012,0.01201753,-0.09700207,-0.02929390,0.04634929,0.14917195,0.12287065,-0.11888364,-0.01556788,-0.02079318,-0.00602390,-0.01049173,-0.02806181,-0.05872909,0.26580569,0.06982812,0.12803431,-0.05908133,-0.05495401,-0.00832188,0.01182255,0.00869127,-0.01470338,-0.01167028,0.07448623,0.10168024,0.06958211,0.20949501,0.06013576,0.01587055,-0.01008220,0.00418351,0.00287066,0.01915723,0.16352504,0.00144864,0, 00:00:12.9
131,-0.02508316,-0.02355249,-0.00252902,-0.01102232,-0.00758573,-0.01632354,0.00420217,0.01846442,-0.13620721,-0.00505271,-0.01500148,0.00423498,-0.01417948,-0.00153922,-0.01314522,-0.01095714,-0.01330299,0.01206319,-0.09594186,-0.02782314,0.04852350,0.15028585,0.12420575,-0.11849129,-0.01566499,-0.02103062,-0.00609154,-0.01053578,-0.02827746,-0.05681106,0.26693895,0.07124413,0.13090152,-0.05794853,-0.05520262,-0.00835616,0.01202637,0.00869880,-0.01475394,-0.01040773,0.07688274,0.10427660,0.06889909,0.20968705,0.06034109,0.01569347,-0.01025688,0.00406948,0.00263804,0.01904409,0.16289651,0.00008597,0, 00:00:13.0
132,-0.02588682,-0.02359540,-0.00262771,-0.01124757,-0.00766481,-0.01661673,0.00403416,0.01828937,-0.13489547,-0.00344531,-0.01557562,0.00591416,-0.01424230,-0.00195702,-0.01339313,-0.01129542,-0.01364918,0.01180024,-0.09367707,-0.02563868,0.05103682,0.15117657,0.12444849,-0.11720762,-0.01581444,-0.02130785,-0.00618966,-0.01059378,-0.02829191,-0.05391860,0.26695570,0.07271387,0.13470866,-0.05495350,-0.05522096,-0.00840842,0.01225847,0.00867574,-0.01509552,-0.00853833,0.08148653,0.10680444,0.06756672,0.20848997,0.06035556,0.01537072,-0.01029714,0.00397288,0.00240613,0.01889901,0.16190328,-0.00241425,0, 00:00:13.1
133,-0.02615769,-0.02360017,-0.00269467,-0.01153193,-0.00767970,-0.01688948,0.00383975,0.01813977,-0.13415526,-0.00234185,-0.01611376,0.00765982,-0.01437081,-0.00231410,-0.01359532,-0.01132233,-0.01397095,0.01139476,-0.09164377,-0.02358351,0.05303375,0.15254942,0.12570770,-0.11560386,-0.01618135,-0.02159506,-0.00626532,-0.01071309,-0.02853254,-0.05140781,0.26894248,0.07430065,0.13882050,-0.05145651,-0.05502909,-0.00853002,0.01250780,0.00864228,-0.01540883,-0.00638907,0.08733167,0.11005478,0.06654569,0.20851056,0.06123725,0.01503578,-0.01028170,0.00399865,0.00223120,0.01882249,0.16145991,-0.00406806,0, 00:00:13.2
134,-0.02606519,-0.02356059,-0.00277236,-0.01186205,-0.00782922,-0.01693907,0.00368412,0.01802483,-0.13536969,-0.00222464,-0.01656591,0.00889586,-0.01442048,-0.00268754,-0.01361253,-0.01142198,-0.01420638,0.01076029,-0.09147669,-0.02282191,0.05417816,0.15428396,0.12832609,-0.11498273,-0.01644416,-0.02200670,-0.00635975,-0.01080052,-0.02890047,-0.05073495,0.27222672,0.07584241,0.14266765,-0.04905349,-0.05515590,-0.00867672,0.01270377,0.00855231,-0.01582519,-0.00465275,0.09212589,0.11263151,0.06657528,0.21032181,0.06289198,0.01475674,-0.01027668,0.00407136,0.00212314,0.01895851,0.16234249,-0.00461966,0, 00:00:13.3
135,-0.02677529,-0.02346515,-0.00286246,-0.01212859,-0.00783877,-0.01690367,0.00362198,0.01790817,-0.13724609,-0.00224179,-0.01709614,0.00989171,-0.01453402,-0.00304518,-0.01389166,-0.01126957,-0.01432934,0.01048694,-0.09212269,-0.02245799,0.05516105,0.15603830,0.13105530,-0.11494464,-0.01675732,-0.02235725,-0.00646135,-0.01077279,-0.02939297,-0.05060782,0.27551946,0.07687714,0.14571349,-0.04775839,-0.05547949,-0.00873958,0.01285694,0.00844515,-0.01627158,-0.00366776,0.09497160,0.11356750,0.06716996,0.21269843,0.06472751,0.01464814,-0.01032065,0.00412954,0.00200967,0.01919643,0.16360316,-0.00523984,0, 00:00:13.4
136,-0.02726649,-0.02358176,-0.00291363,-0.01232244,-0.00777032,-0.01712403,0.00357424,0.01785744,-0.13817528,-0.00212023,-0.01726765,0.01104807,-0.01451942,-0.00316878,-0.01409275,-0.01119884,-0.01454392,0.01054935,-0.09220357,-0.02117336,0.05628182,0.15747532,0.13349450,-0.11411011,-0.01686839,-0.02270934,-0.00652804,-0.01075335,-0.02971013,-0.04964592,0.27856737,0.07833195,0.14946872,-0.04574636,-0.05554308,-0.00873256,0.01302649,0.00830754,-0.01660904,-0.00212889,0.09867694,0.11619061,0.06754895,0.21463038,0.06650694,0.01440565,-0.01034170,0.00418507,0.00193559,0.01932808,0.16424888,-0.00567992,0, 00:00:13.5
137,-0.02793354,-0.02377653,-0.00302467,-0.01248851,-0.00778795,-0.01715964,0.00353812,0.01784397,-0.13828766,-0.00135705,-0.01754485,0.01275769,-0.01440530,-0.00330536,-0.01429150,-0.01130669,-0.01477839,0.01076047,-0.09215149,-0.01944398,0.05821886,0.15864301,0.13512257,-0.11324876,-0.01697855,-0.02309457,-0.00654988,-0.01071592,-0.02987543,-0.04818728,0.28061390,0.07948926,0.15371948,-0.04270620,-0.05581727,-0.00877707,0.01321502,0.00821883,-0.01674420,-0.00046575,0.10305811,0.11923857,0.06713486,0.21564679,0.06727978,0.01422315,-0.01036122,0.00419152,0.00179754,0.01932596,0.16440669,-0.00688014,0, 00:00:13.6
138,-0.02842258,-0.02403751,-0.00321957,-0.01280095,-0.00785587,-0.01725430,0.00353432,0.01769185,-0.14016543,-0.00126446,-0.01814382,0.01443714,-0.01442277,-0.00365074,-0.01447792,-0.01152148,-0.01489485,0.01047267,-0.09384595,-0.01838591,0.05992363,0.16036016,0.13723192,-0.11366417,-0.01709482,-0.02341476,-0.00658503,-0.01064959,-0.03051007,-0.04810785,0.28355870,0.08042010,0.15796931,-0.04005319,-0.05660132,-0.00890105,0.01338866,0.00809129,-0.01700047,0.00053290,0.10710210,0.12168609,0.06715780,0.21755391,0.06797977,0.01426466,-0.01052356,0.00418254,0.00175502,0.01951381,0.16556391,-0.00713769,0, 00:00:13.7
139,-0.02858911,-0.02426849,-0.00340203,-0.01300808,-0.00785243,-0.01732103,0.00348868,0.01750324,-0.14344878,-0.00233170,-0.01858019,0.01571460,-0.01462838,-0.00405029,-0.01480612,-0.01163970,-0.01509364,0.01015484,-0.09624690,-0.01802719,0.06087843,0.16208449,0.13991274,-0.11472108,-0.01735562,-0.02374578,-0.00662264,-0.01058280,-0.03139754,-0.04895942,0.28723666,0.08155259,0.16201584,-0.03827241,-0.05769036,-0.00912183,0.01350274,0.00793633,-0.01762234,0.00107922,0.11007308,0.12346290,0.06754999,0.22049858,0.06912754,0.01433789,-0.01083153,0.00408016,0.00169379,0.01988035,0.16726062,-0.00715199,0, 00:00:13.8
140,-0.02890248,-0.02440793,-0.00354040,-0.01337075,-0.00775563,-0.01736278,0.00347911,0.01741925,-0.14682238,-0.00331768,-0.01898871,0.01678514,-0.01470090,-0.00450720,-0.01495040,-0.01187801,-0.01538303,0.01003252,-0.09864993,-0.01792654,0.06191464,0.16363761,0.14264810,-0.11631975,-0.01771086,-0.02407681,-0.00666575,-0.01060631,-0.03220862,-0.04999571,0.29100713,0.08249739,0.16573563,-0.03741566,-0.05886040,-0.00934005,0.01355636,0.00781477,-0.01794120,0.00136599,0.11213322,0.12484699,0.06861429,0.22414561,0.07035979,0.01449715,-0.01119316,0.00396784,0.00165345,0.02030086,0.16904733,-0.00686235,0, 00:00:13.9
141,-0.02971838,-0.02470225,-0.00373501,-0.01370118,-0.00777583,-0.01751591,0.00347199,0.01737146,-0.15031844,-0.00405820,-0.01923331,0.01784813,-0.01474742,-0.00484407,-0.01513832,-0.01179684,-0.01591330,0.00982199,-0.10136735,-0.01782925,0.06273793,0.16524121,0.14544268,-0.11842725,-0.01801914,-0.02441701,-0.00673680,-0.01067201,-0.03286871,-0.05111533,0.29492208,0.08331731,0.16936769,-0.03675713,-0.06021385,-0.00952079,0.01361009,0.00776327,-0.01840791,0.00144180,0.11373100,0.12702659,0.06989879,0.22763515,0.07138575,0.01478421,-0.01150376,0.00392321,0.00161998,0.02076456,0.17089324,-0.00604539,0, 00:00:14.0
142,-0.03016958,-0.02462989,-0.00386231,-0.01394956,-0.00780785,-0.01761165,0.00352122,0.01742175,-0.15215471,-0.00438274,-0.01946580,0.01888181,-0.01464318,-0.00496488,-0.01544857,-0.01202769,-0.01661891,0.01006510,-0.10249656,-0.01695347,0.06399419,0.16669194,0.14804307,-0.11940204,-0.01823893,-0.02470556,-0.00680615,-0.01067207,-0.03329509,-0.05095264,0.29842418,0.08435749,0.17361872,-0.03558801,-0.06121499,-0.00961265,0.01370196,0.00760209,-0.01889062,0.00212932,0.11640449,0.12921941,0.07069089,0.23011504,0.07241756,0.01487289,-0.01179872,0.00386171,0.00155150,0.02104549,0.17193556,-0.00511658,0, 00:00:14.1
143,-0.03033820,-0.02450696,-0.00396944,-0.01415353,-0.00782753,-0.01760564,0.00352706,0.01747782,-0.15187053,-0.00407802,-0.02002552,0.02034683,-0.01450855,-0.00510145,-0.01577971,-0.01196645,-0.01686049,0.01019952,-0.10157663,-0.01513819,0.06576283,0.16766728,0.14945894,-0.11880863,-0.01837393,-0.02500945,-0.00679296,-0.01067777,-0.03324166,-0.04902453,0.30072296,0.08555311,0.17821446,-0.03302290,-0.06146539,-0.00960536,0.01394766,0.00747092,-0.01920683,0.00367525,0.12052245,0.13163602,0.07076524,0.23127012,0.07313956,0.01470692,-0.01192244,0.00385114,0.00141102,0.02107917,0.17176455,-0.00515974,0, 00:00:14.2
144,-0.03083131,-0.02464423,-0.00403241,-0.01442969,-0.00793748,-0.01785987,0.00350490,0.01751848,-0.15066296,-0.00322525,-0.02053693,0.02250305,-0.01441090,-0.00529993,-0.01604758,-0.01184964,-0.01702366,0.01026210,-0.09961924,-0.01262980,0.06789787,0.16833854,0.14979711,-0.11772859,-0.01852136,-0.02528132,-0.00678699,-0.01079001,-0.03320368,-0.04608710,0.30133098,0.08662990,0.18382992,-0.02904449,-0.06154400,-0.00964884,0.01423110,0.00740556,-0.01970343,0.00576423,0.12614423,0.13436183,0.07012756,0.23100507,0.07366371,0.01457608,-0.01189051,0.00380586,0.00121957,0.02097256,0.17101707,-0.00666112,0, 00:00:14.3
145,-0.03105411,-0.02482356,-0.00407665,-0.01470349,-0.00792434,-0.01837954,0.00338864,0.01749770,-0.15068641,-0.00242544,-0.02067834,0.02469554,-0.01443182,-0.00548932,-0.01631518,-0.01192781,-0.01719576,0.01013078,-0.09898409,-0.01063603,0.07003776,0.16957408,0.15089950,-0.11718063,-0.01871929,-0.02558554,-0.00682448,-0.01088254,-0.03331545,-0.04433241,0.30329117,0.08759054,0.18956724,-0.02503587,-0.06186376,-0.00973697,0.01445791,0.00732576,-0.02000640,0.00767857,0.13203543,0.13813570,0.06986745,0.23139855,0.07434464,0.01448038,-0.01184089,0.00382364,0.00111894,0.02097250,0.17101839,-0.00756182,0, 00:00:14.4
146,-0.03122981,-0.02516201,-0.00417077,-0.01499311,-0.00790982,-0.01849442,0.00332383,0.01746111,-0.15336446,-0.00308216,-0.02074095,0.02595278,-0.01440009,-0.00590445,-0.01657135,-0.01183145,-0.01731966,0.00981151,-0.10098820,-0.01013281,0.07120687,0.17105663,0.15338399,-0.11780980,-0.01904103,-0.02587857,-0.00684525,-0.01093628,-0.03401951,-0.04508433,0.30692121,0.08849072,0.19461003,-0.02214427,-0.06278077,-0.00982990,0.01459246,0.00716033,-0.02042121,0.00852738,0.13657159,0.14117864,0.07055236,0.23399639,0.07535063,0.01459642,-0.01184467,0.00385072,0.00115469,0.02127123,0.17248422,-0.00713273,0, 00:00:14.5
147,-0.03115834,-0.02526507,-0.00433723,-0.01529680,-0.00786636,-0.01834900,0.00329844,0.01748241,-0.15743074,-0.00435185,-0.02089472,0.02665160,-0.01448439,-0.00633944,-0.01674617,-0.01138593,-0.01733385,0.00979553,-0.10445467,-0.01110717,0.07132458,0.17283416,0.15643844,-0.11960152,-0.01935819,-0.02613950,-0.00678061,-0.01095532,-0.03499153,-0.04711906,0.31144878,0.08888721,0.19815789,-0.02148702,-0.06389462,-0.00996038,0.01474411,0.00705001,-0.02096365,0.00832512,0.13730106,0.14256418,0.07256946,0.23740017,0.07684381,0.01486832,-0.01196005,0.00385223,0.00123392,0.02182049,0.17500609,-0.00563607,0, 00:00:14.6
148,-0.03122354,-0.02522557,-0.00434821,-0.01562460,-0.00778938,-0.01847835,0.00331912,0.01758287,-0.16201589,-0.00645083,-0.02096259,0.02668876,-0.01448901,-0.00659620,-0.01687683,-0.01114521,-0.01749803,0.00970531,-0.10839757,-0.01287489,0.07118816,0.17504993,0.16050927,-0.12174782,-0.01960212,-0.02639246,-0.00666665,-0.01101160,-0.03601389,-0.04969506,0.31786773,0.08930401,0.20047341,-0.02277976,-0.06504609,-0.01007823,0.01488378,0.00696225,-0.02142878,0.00778826,0.13555610,0.14291218,0.07577248,0.24150038,0.07891969,0.01516500,-0.01221445,0.00382967,0.00128868,0.02241288,0.17786726,-0.00337571,0, 00:00:14.7
149,-0.03117746,-0.02515222,-0.00438023,-0.01586307,-0.00779937,-0.01885560,0.00341588,0.01776670,-0.16496390,-0.00791794,-0.02092190,0.02680486,-0.01447170,-0.00672210,-0.01713443,-0.01067174,-0.01775216,0.01008036,-0.11043943,-0.01354620,0.07134492,0.17685428,0.16361384,-0.12283000,-0.01982162,-0.02666209,-0.00657387,-0.01104222,-0.03649511,-0.05065956,0.32255828,0.08987807,0.20309934,-0.02365790,-0.06577397,-0.01008972,0.01511427,0.00684400,-0.02181392,0.00793561,0.13470557,0.14352977,0.07848137,0.24460639,0.08075505,0.01534045,-0.01245696,0.00379669,0.00122217,0.02277769,0.17952903,-0.00219340,0, 00:00:14.8
150,-0.03160565,-0.02501796,-0.00433521,-0.01607780,-0.00766199,-0.01883202,0.00348763,0.01804422,-0.16541806,-0.00811623,-0.02114489,0.02777386,-0.01434511,-0.00688057,-0.01739115,-0.01045614,-0.01799877,0.00998502,-0.10966615,-0.01233773,0.07248703,0.17789026,0.16492496,-0.12264806,-0.01988886,-0.02693452,-0.00647816,-0.01112186,-0.03643838,-0.04926382,0.32493967,0.09042928,0.20611104,-0.02267606,-0.06603900,-0.01008025,0.01541842,0.00673408,-0.02202780,0.00909380,0.13694364,0.14461516,0.07953613,0.24632750,0.08161971,0.01526101,-0.01256166,0.00373370,0.00108267,0.02286430,0.17963131,-0.00215019,0, 00:00:14.9
151,-0.03182422,-0.02508810,-0.00431905,-0.01626847,-0.00757952,-0.01893977,0.00348774,0.01814543,-0.16609356,-0.00848786,-0.02151676,0.02943644,-0.01422035,-0.00712216,-0.01743558,-0.01030006,-0.01829132,0.01013425,-0.10971735,-0.01094774,0.07374220,0.17903270,0.16549495,-0.12241827,-0.01995948,-0.02716244,-0.00640540,-0.01122308,-0.03666610,-0.04829086,0.32630873,0.09099828,0.21009806,-0.02041870,-0.06634463,-0.01010533,0.01571179,0.00658680,-0.02224634,0.01029466,0.14030933,0.14602056,0.07987320,0.24768597,0.08224940,0.01519321,-0.01256798,0.00375439,0.00099326,0.02292202,0.18021929,-0.00246664,0, 00:00:15.0
152,-0.03230885,-0.02527098,-0.00441304,-0.01654196,-0.00747366,-0.01913954,0.00353876,0.01813797,-0.16748381,-0.00881373,-0.02178325,0.03081045,-0.01421593,-0.00732587,-0.01766797,-0.01032891,-0.01846043,0.00999055,-0.11053742,-0.01031629,0.07479919,0.18060909,0.16690175,-0.12272859,-0.02022331,-0.02732725,-0.00627524,-0.01137378,-0.03717747,-0.04812396,0.32867965,0.09153654,0.21400072,-0.01877355,-0.06679063,-0.01015948,0.01595465,0.00641457,-0.02267748,0.01097820,0.14299572,0.14704490,0.08102281,0.25031829,0.08352704,0.01521378,-0.01256131,0.00382491,0.00097661,0.02311052,0.18183632,-0.00155381,0, 00:00:15.1
153,-0.03320505,-0.02520200,-0.00433704,-0.01679241,-0.00746569,-0.01930902,0.00343848,0.01829844,-0.16698328,-0.00833199,-0.02236315,0.03233630,-0.01412045,-0.00760065,-0.01783390,-0.01031578,-0.01879538,0.00986429,-0.10915871,-0.00849491,0.07635973,0.18163949,0.16850778,-0.12183578,-0.02051098,-0.02748244,-0.00612571,-0.01156140,-0.03753068,-0.04631310,0.33101970,0.09248910,0.21849202,-0.01605765,-0.06692555,-0.01017215,0.01625660,0.00633785,-0.02297328,0.01258327,0.14831346,0.14972547,0.08193991,0.25193071,0.08476816,0.01505965,-0.01243044,0.00395804,0.00094652,0.02312122,0.18258032,-0.00108914,0, 00:00:15.2
154,-0.03345194,-0.02514407,-0.00418566,-0.01705691,-0.00738330,-0.01929716,0.00338835,0.01858443,-0.16616964,-0.00773967,-0.02278170,0.03405580,-0.01389428,-0.00783416,-0.01810037,-0.01012589,-0.01892210,0.00976658,-0.10746755,-0.00632807,0.07812490,0.18301626,0.17021628,-0.12007324,-0.02072706,-0.02768358,-0.00596563,-0.01169284,-0.03762965,-0.04428167,0.33366627,0.09364229,0.22319102,-0.01235536,-0.06675914,-0.01011290,0.01662132,0.00628497,-0.02332144,0.01487315,0.15527067,0.15230702,0.08266772,0.25365353,0.08634314,0.01482950,-0.01223353,0.00416594,0.00094003,0.02310226,0.18341184,-0.00044759,0, 00:00:15.3
155,-0.03345146,-0.02506127,-0.00409134,-0.01724610,-0.00740677,-0.01940939,0.00340686,0.01891181,-0.16714561,-0.00749665,-0.02272124,0.03580357,-0.01367537,-0.00784304,-0.01825977,-0.01025286,-0.01899092,0.01005228,-0.10777681,-0.00480631,0.07953103,0.18492155,0.17266975,-0.11943113,-0.02096007,-0.02797455,-0.00581449,-0.01177290,-0.03784775,-0.04364718,0.33760113,0.09466389,0.22785509,-0.00959733,-0.06688891,-0.01010505,0.01698326,0.00627615,-0.02366500,0.01642032,0.16013116,0.15491731,0.08424129,0.25677755,0.08864924,0.01472373,-0.01209971,0.00447445,0.00096569,0.02331011,0.18544701,0.00103300,0, 00:00:15.4
156,-0.03361040,-0.02487694,-0.00415380,-0.01737912,-0.00740583,-0.01943357,0.00347639,0.01930077,-0.16870615,-0.00800114,-0.02292171,0.03715803,-0.01348630,-0.00780360,-0.01835979,-0.01023427,-0.01908946,0.01052311,-0.10882928,-0.00394039,0.08045597,0.18664309,0.17522246,-0.11956283,-0.02111334,-0.02818640,-0.00561536,-0.01186067,-0.03808311,-0.04345293,0.34125495,0.09545435,0.23204982,-0.00804041,-0.06726456,-0.01001288,0.01729120,0.00629319,-0.02394752,0.01727011,0.16351697,0.15662810,0.08615869,0.26015303,0.09063739,0.01471988,-0.01202329,0.00472506,0.00097500,0.02359554,0.18801896,0.00281919,0, 00:00:15.5
157,-0.03433663,-0.02481386,-0.00412274,-0.01753631,-0.00746733,-0.01969862,0.00353898,0.01959711,-0.16851759,-0.00737441,-0.02321655,0.03848606,-0.01338079,-0.00791878,-0.01860437,-0.01017888,-0.01901443,0.01090152,-0.10820857,-0.00231180,0.08180030,0.18802677,0.17742220,-0.11859019,-0.02121372,-0.02837583,-0.00549645,-0.01202718,-0.03808798,-0.04210694,0.34438559,0.09641160,0.23623516,-0.00588418,-0.06722705,-0.00987145,0.01770623,0.00635955,-0.02419007,0.01873354,0.16811109,0.15813202,0.08782099,0.26273251,0.09273419,0.01466253,-0.01195822,0.00485819,0.00091832,0.02365481,0.18998779,0.00427335,0, 00:00:15.6
158,-0.03536779,-0.02475530,-0.00408626,-0.01774608,-0.00751923,-0.01992545,0.00351497,0.01977997,-0.16816142,-0.00684947,-0.02375376,0.04003349,-0.01333822,-0.00807884,-0.01878653,-0.01028783,-0.01904414,0.01107007,-0.10750666,-0.00064328,0.08330854,0.18944830,0.17930652,-0.11749545,-0.02133248,-0.02858295,-0.00543978,-0.01225199,-0.03802793,-0.04052559,0.34732005,0.09706113,0.23998617,-0.00331999,-0.06715474,-0.00982019,0.01812110,0.00650043,-0.02428183,0.02030233,0.17297786,0.15979062,0.08950973,0.26512966,0.09504567,0.01454799,-0.01190666,0.00504757,0.00092666,0.02359959,0.19167981,0.00566308,0, 00:00:15.7
159,-0.03579048,-0.02460242,-0.00416568,-0.01798181,-0.00762347,-0.02002024,0.00348993,0.02001407,-0.16862792,-0.00677640,-0.02413630,0.04134409,-0.01343293,-0.00835329,-0.01902877,-0.01009662,-0.01899249,0.01131898,-0.10737642,0.00053634,0.08452994,0.19121908,0.18137331,-0.11729121,-0.02159972,-0.02880576,-0.00537092,-0.01247749,-0.03819419,-0.03969156,0.35060719,0.09737524,0.24339052,-0.00132524,-0.06724602,-0.00979348,0.01846819,0.00665346,-0.02450451,0.02156005,0.17694712,0.16105367,0.09183742,0.26849106,0.09752771,0.01448408,-0.01188774,0.00526531,0.00096118,0.02376762,0.19408481,0.00767424,0, 00:00:15.8
160,-0.03617726,-0.02442242,-0.00413083,-0.01819667,-0.00760758,-0.02023465,0.00339863,0.02022062,-0.16851899,-0.00721223,-0.02440658,0.04254200,-0.01333263,-0.00855457,-0.01933601,-0.01024526,-0.01897338,0.01126958,-0.10646613,0.00193314,0.08586198,0.19258206,0.18339500,-0.11644188,-0.02180518,-0.02907569,-0.00526404,-0.01277581,-0.03838899,-0.03828316,0.35370141,0.09790535,0.24675091,0.00090171,-0.06719485,-0.00975437,0.01885024,0.00677040,-0.02480631,0.02283641,0.18156816,0.16283241,0.09426349,0.27107543,0.09985220,0.01439405,-0.01175971,0.00550949,0.00099323,0.02389850,0.19627246,0.00948057,0, 00:00:15.9
161,-0.03658704,-0.02430202,-0.00396459,-0.01841781,-0.00768418,-0.02033751,0.00326748,0.02048260,-0.16617191,-0.00612986,-0.02489404,0.04426542,-0.01315236,-0.00869047,-0.01964534,-0.01054498,-0.01902768,0.01139816,-0.10332270,0.00482903,0.08805190,0.19308867,0.18414357,-0.11395399,-0.02203045,-0.02926132,-0.00521169,-0.01303679,-0.03822265,-0.03473241,0.35490850,0.09854732,0.25075367,0.00509657,-0.06659910,-0.00960910,0.01932842,0.00688905,-0.02517293,0.02528424,0.18875262,0.16504590,0.09576844,0.27201498,0.10165373,0.01405480,-0.01142392,0.00580730,0.00100924,0.02380234,0.19709612,0.00999615,0, 00:00:16.0
162,-0.03728986,-0.02410875,-0.00390550,-0.01860315,-0.00772620,-0.02053636,0.00314316,0.02081491,-0.16373935,-0.00457328,-0.02550671,0.04619266,-0.01287225,-0.00874546,-0.01992763,-0.01071179,-0.01921489,0.01190556,-0.10038544,0.00793143,0.09059490,0.19289041,0.18362263,-0.11110802,-0.02218736,-0.02949906,-0.00513066,-0.01318859,-0.03789500,-0.03112064,0.35487801,0.09892704,0.25476930,0.00976670,-0.06589676,-0.00946072,0.01982175,0.00706089,-0.02527726,0.02769698,0.19568089,0.16683021,0.09614262,0.27219185,0.10310017,0.01369234,-0.01103155,0.00612258,0.00098391,0.02358536,0.19764459,0.00951867,0, 00:00:16.1
163,-0.03801506,-0.02406244,-0.00380562,-0.01879330,-0.00772713,-0.02068315,0.00305193,0.02110193,-0.16200902,-0.00361259,-0.02606889,0.04811929,-0.01263971,-0.00865992,-0.02001503,-0.01098493,-0.01947893,0.01221451,-0.09868111,0.01061063,0.09298802,0.19267927,0.18301535,-0.10825787,-0.02238680,-0.02971630,-0.00501672,-0.01335554,-0.03758463,-0.02815270,0.35508555,0.09916140,0.25908035,0.01436566,-0.06530203,-0.00937466,0.02029248,0.00723310,-0.02555335,0.02972125,0.20212820,0.16949418,0.09641190,0.27270234,0.10446817,0.01335388,-0.01065264,0.00638601,0.00093158,0.02331471,0.19833893,0.00938238,0, 00:00:16.2
164,-0.03845368,-0.02397896,-0.00378231,-0.01901385,-0.00786992,-0.02057260,0.00296415,0.02129266,-0.16210255,-0.00329493,-0.02657571,0.04974168,-0.01253911,-0.00871576,-0.02015021,-0.01092897,-0.01961129,0.01253908,-0.09881781,0.01226876,0.09482013,0.19306321,0.18365863,-0.10625134,-0.02257616,-0.02996439,-0.00492830,-0.01353028,-0.03772681,-0.02686256,0.35670131,0.09925050,0.26310197,0.01858602,-0.06508077,-0.00935487,0.02069384,0.00746521,-0.02590192,0.03121807,0.20821756,0.17162049,0.09749337,0.27426732,0.10620014,0.01309130,-0.01042722,0.00665539,0.00095826,0.02323331,0.19986169,0.01031839,0, 00:00:16.3
165,-0.03899908,-0.02381288,-0.00372886,-0.01922913,-0.00792005,-0.02046592,0.00291567,0.02150723,-0.16411901,-0.00398762,-0.02689098,0.05054539,-0.01254180,-0.00892951,-0.02036159,-0.01106581,-0.01969805,0.01257763,-0.10057051,0.01251594,0.09590751,0.19340916,0.18518698,-0.10559373,-0.02273659,-0.03021418,-0.00480948,-0.01368423,-0.03822168,-0.02739723,0.35896558,0.09905303,0.26651105,0.02112739,-0.06537654,-0.00939366,0.02097949,0.00771035,-0.02623477,0.03151263,0.21186781,0.17350803,0.09948043,0.27676222,0.10816447,0.01299152,-0.01040417,0.00688733,0.00104401,0.02331845,0.20214264,0.01233621,0, 00:00:16.4
166,-0.03948442,-0.02371133,-0.00368909,-0.01957548,-0.00783285,-0.02047010,0.00294747,0.02185315,-0.16580485,-0.00446628,-0.02716729,0.05127769,-0.01253526,-0.00911471,-0.02038181,-0.01108712,-0.01996244,0.01263309,-0.10157264,0.01283322,0.09673969,0.19398539,0.18618283,-0.10528470,-0.02304139,-0.03050236,-0.00474780,-0.01394179,-0.03861545,-0.02750822,0.36054945,0.09856720,0.26915786,0.02252504,-0.06570100,-0.00944173,0.02127686,0.00789967,-0.02659254,0.03169689,0.21430147,0.17399111,0.10127369,0.27970195,0.10991994,0.01293375,-0.01048099,0.00710481,0.00110383,0.02338108,0.20404519,0.01439179,0, 00:00:16.5
167,-0.03987764,-0.02354994,-0.00359402,-0.01986706,-0.00785981,-0.02045757,0.00286219,0.02231530,-0.16595942,-0.00485229,-0.02744303,0.05225702,-0.01246579,-0.00920243,-0.02067914,-0.01126099,-0.02049863,0.01262397,-0.10083057,0.01386797,0.09792353,0.19415586,0.18642767,-0.10396644,-0.02331631,-0.03076931,-0.00473993,-0.01423769,-0.03872207,-0.02642875,0.36124703,0.09816049,0.27201921,0.02442090,-0.06558225,-0.00943975,0.02159844,0.00809824,-0.02698269,0.03261070,0.21813968,0.17489167,0.10271280,0.28229704,0.11140233,0.01272402,-0.01042222,0.00739106,0.00111517,0.02331866,0.20507610,0.01614793,0, 00:00:16.6
168,-0.04027274,-0.02347470,-0.00355373,-0.02008834,-0.00795623,-0.02033706,0.00275453,0.02276417,-0.16580050,-0.00464227,-0.02784633,0.05336251,-0.01233072,-0.00918211,-0.02090725,-0.01155410,-0.02053544,0.01300820,-0.09994871,0.01502798,0.09930077,0.19450407,0.18681814,-0.10229147,-0.02341413,-0.03104791,-0.00468805,-0.01449724,-0.03875642,-0.02516457,0.36237776,0.09805648,0.27514783,0.02675034,-0.06532574,-0.00934983,0.02198197,0.00826110,-0.02735204,0.03356237,0.22253779,0.17614450,0.10380757,0.28497696,0.11298173,0.01249080,-0.01023773,0.00770834,0.00105821,0.02331107,0.20630269,0.01760611,0, 00:00:16.7
169,-0.04033035,-0.02361003,-0.00353170,-0.02028588,-0.00806317,-0.02041632,0.00280007,0.02313871,-0.16652304,-0.00493905,-0.02828041,0.05450363,-0.01206950,-0.00896637,-0.02115920,-0.01168083,-0.02066272,0.01349057,-0.10044241,0.01560644,0.10043818,0.19512379,0.18769936,-0.10105819,-0.02347151,-0.03129596,-0.00461941,-0.01474499,-0.03869661,-0.02469638,0.36435616,0.09788731,0.27851623,0.02883638,-0.06510086,-0.00933917,0.02234734,0.00845744,-0.02758865,0.03444114,0.22576272,0.17634808,0.10537001,0.28821227,0.11505138,0.01231920,-0.01008372,0.00795940,0.00098545,0.02336652,0.20830861,0.01927079,0, 00:00:16.8
170,-0.04072831,-0.02357912,-0.00355897,-0.02049017,-0.00807704,-0.02038601,0.00280399,0.02340515,-0.16739985,-0.00520520,-0.02864377,0.05538440,-0.01187573,-0.00885736,-0.02134976,-0.01149979,-0.02079192,0.01387559,-0.10117522,0.01601677,0.10132773,0.19566724,0.18845166,-0.10035157,-0.02360622,-0.03155226,-0.00458841,-0.01504157,-0.03873172,-0.02444531,0.36595821,0.09741308,0.28159425,0.03043693,-0.06510212,-0.00933983,0.02270905,0.00857942,-0.02785447,0.03492687,0.22797328,0.17737824,0.10723473,0.29085395,0.11690137,0.01221074,-0.00998731,0.00813509,0.00086113,0.02337608,0.21001074,0.02083152,0, 00:00:16.9
171,-0.04120760,-0.02365568,-0.00350092,-0.02061929,-0.00827125,-0.02041731,0.00269724,0.02367793,-0.16628940,-0.00543065,-0.02919353,0.05642431,-0.01187189,-0.00892941,-0.02163034,-0.01150076,-0.02101431,0.01377367,-0.09925805,0.01732164,0.10250731,0.19557774,0.18833426,-0.09894566,-0.02373735,-0.03178672,-0.00464207,-0.01543908,-0.03851548,-0.02253435,0.36627638,0.09684101,0.28478819,0.03298910,-0.06481728,-0.00932868,0.02304086,0.00873248,-0.02814116,0.03616264,0.23226202,0.17858823,0.10842717,0.29236469,0.11840827,0.01200703,-0.00991471,0.00833154,0.00073799,0.02308366,0.21041793,0.02140220,0, 00:00:17.0
172,-0.04187433,-0.02379635,-0.00351456,-0.02089346,-0.00848312,-0.02056674,0.00254392,0.02400092,-0.16435018,-0.00524324,-0.02983697,0.05777801,-0.01188830,-0.00908541,-0.02189535,-0.01147543,-0.02134846,0.01361863,-0.09625204,0.01900560,0.10390468,0.19525596,0.18773970,-0.09725432,-0.02387882,-0.03204490,-0.00472849,-0.01588474,-0.03810653,-0.02004935,0.36563706,0.09637257,0.28790647,0.03637854,-0.06446938,-0.00938563,0.02336102,0.00892075,-0.02864066,0.03779747,0.23825727,0.18012941,0.10903090,0.29336420,0.11974882,0.01175971,-0.00973657,0.00857842,0.00061081,0.02277346,0.21046506,0.02181651,0, 00:00:17.1
173,-0.04222634,-0.02358608,-0.00356954,-0.02119983,-0.00851034,-0.02085222,0.00245614,0.02431692,-0.16417262,-0.00512457,-0.03020968,0.05895147,-0.01179304,-0.00905840,-0.02193834,-0.01161918,-0.02162364,0.01379148,-0.09552883,0.01993312,0.10493112,0.19566418,0.18784554,-0.09602423,-0.02416850,-0.03233819,-0.00478383,-0.01638327,-0.03818731,-0.01910088,0.36607125,0.09594599,0.29123992,0.03921104,-0.06432711,-0.00939937,0.02365009,0.00913313,-0.02899480,0.03887843,0.24364999,0.18105312,0.10996948,0.29566926,0.12151805,0.01168101,-0.00954579,0.00876615,0.00053439,0.02265270,0.21161157,0.02283491,0, 00:00:17.2
174,-0.04245514,-0.02343915,-0.00356302,-0.02141336,-0.00855955,-0.02091071,0.00232654,0.02468761,-0.16531816,-0.00525451,-0.03016800,0.05973252,-0.01171974,-0.00912032,-0.02204248,-0.01166206,-0.02167403,0.01386077,-0.09650010,0.02015886,0.10530219,0.19579209,0.18844043,-0.09569810,-0.02429851,-0.03263779,-0.00479427,-0.01673032,-0.03846052,-0.01926361,0.36683342,0.09544294,0.29448354,0.04090341,-0.06455329,-0.00942698,0.02392203,0.00939603,-0.02928931,0.03882782,0.24666367,0.18165916,0.11173597,0.29829258,0.12326196,0.01175846,-0.00946470,0.00892424,0.00052516,0.02263313,0.21350959,0.02438672,0, 00:00:17.3
175,-0.04302360,-0.02333749,-0.00360886,-0.02165135,-0.00858517,-0.02080531,0.00229821,0.02511418,-0.16716656,-0.00521321,-0.03033187,0.06028545,-0.01152068,-0.00901408,-0.02226324,-0.01180372,-0.02176469,0.01405963,-0.09836844,0.01986526,0.10560621,0.19566402,0.18894042,-0.09583639,-0.02440218,-0.03289214,-0.00482781,-0.01700755,-0.03878948,-0.02005458,0.36745232,0.09461711,0.29736736,0.04184103,-0.06495312,-0.00938256,0.02419539,0.00959353,-0.02954617,0.03842748,0.24821907,0.18178605,0.11346949,0.30086851,0.12472985,0.01191698,-0.00945864,0.00906879,0.00050632,0.02259838,0.21532016,0.02593527,0, 00:00:17.4
176,-0.04358748,-0.02349730,-0.00362909,-0.02186137,-0.00847314,-0.02086707,0.00229713,0.02555049,-0.17013265,-0.00571827,-0.03042674,0.06067472,-0.01125959,-0.00889169,-0.02245983,-0.01209217,-0.02178869,0.01434234,-0.10128333,0.01883079,0.10579836,0.19550397,0.18928798,-0.09636338,-0.02443986,-0.03310781,-0.00487056,-0.01726524,-0.03913797,-0.02171355,0.36826617,0.09362416,0.29985261,0.04235823,-0.06555905,-0.00938145,0.02446493,0.00967704,-0.02998741,0.03772248,0.24863690,0.18181914,0.11524913,0.30362087,0.12591653,0.01220527,-0.00946922,0.00918644,0.00045198,0.02258367,0.21755561,0.02752036,0, 00:00:17.5
177,-0.04401166,-0.02350297,-0.00364102,-0.02207273,-0.00845489,-0.02079046,0.00233425,0.02589489,-0.17273861,-0.00663180,-0.03050931,0.06090247,-0.01124469,-0.00900043,-0.02265993,-0.01204312,-0.02213751,0.01475047,-0.10349634,0.01770292,0.10561658,0.19547829,0.18963362,-0.09737481,-0.02456411,-0.03341812,-0.00496479,-0.01760559,-0.03954384,-0.02294820,0.36879876,0.09227747,0.30196732,0.04270364,-0.06635191,-0.00944106,0.02473661,0.00977333,-0.03051395,0.03683156,0.24903421,0.18175402,0.11732166,0.30606264,0.12687397,0.01252291,-0.00954883,0.00919655,0.00037004,0.02254468,0.21961492,0.02926480,0, 00:00:17.6
178,-0.04433442,-0.02317730,-0.00362482,-0.02232901,-0.00838322,-0.02087622,0.00224994,0.02610872,-0.17340603,-0.00735521,-0.03069653,0.06101267,-0.01120623,-0.00919299,-0.02272724,-0.01170891,-0.02237308,0.01471318,-0.10334305,0.01741945,0.10585105,0.19495556,0.18957347,-0.09758230,-0.02478753,-0.03366384,-0.00507673,-0.01803076,-0.03974490,-0.02241301,0.36825120,0.09092835,0.30381453,0.04330275,-0.06666677,-0.00952889,0.02497813,0.00976759,-0.03091300,0.03651920,0.25061357,0.18157761,0.11889097,0.30727378,0.12774724,0.01268053,-0.00961665,0.00921091,0.00024185,0.02236993,0.22069953,0.03048947,0, 00:00:17.7
179,-0.04452144,-0.02327196,-0.00359976,-0.02252396,-0.00842960,-0.02117059,0.00212515,0.02635865,-0.17301118,-0.00751517,-0.03090785,0.06132441,-0.01101411,-0.00930954,-0.02273479,-0.01154224,-0.02246877,0.01428612,-0.10188928,0.01789785,0.10618727,0.19426358,0.18933301,-0.09639140,-0.02501337,-0.03393340,-0.00514991,-0.01850134,-0.03964479,-0.02108718,0.36732349,0.08985138,0.30568811,0.04459564,-0.06644286,-0.00955913,0.02526709,0.00982515,-0.03135040,0.03682384,0.25300649,0.18190986,0.11984635,0.30841523,0.12902768,0.01256449,-0.00957012,0.00928185,0.00008442,0.02203457,0.22106981,0.03220689,0, 00:00:17.8
180,-0.04498534,-0.02306827,-0.00352917,-0.02280144,-0.00842105,-0.02113597,0.00201969,0.02666476,-0.17286795,-0.00783763,-0.03117347,0.06181968,-0.01087437,-0.00936925,-0.02295624,-0.01153943,-0.02279018,0.01430612,-0.10085595,0.01836839,0.10660689,0.19386423,0.18942949,-0.09518351,-0.02534063,-0.03423335,-0.00521624,-0.01897645,-0.03943205,-0.02013402,0.36692721,0.08899867,0.30771884,0.04614214,-0.06606419,-0.00953818,0.02555210,0.00990706,-0.03183949,0.03727424,0.25587815,0.18242310,0.12074842,0.30952227,0.13060988,0.01247892,-0.00941135,0.00948347,-0.00005889,0.02180174,0.22159111,0.03427828,0, 00:00:17.9
181,-0.04503061,-0.02264191,-0.00344778,-0.02301166,-0.00847788,-0.02117410,0.00193238,0.02694239,-0.17301661,-0.00825902,-0.03137782,0.06230548,-0.01061142,-0.00927452,-0.02327147,-0.01149464,-0.02288749,0.01430875,-0.10043813,0.01868004,0.10696193,0.19369647,0.18986388,-0.09393366,-0.02555698,-0.03456296,-0.00522208,-0.01939741,-0.03926347,-0.01942206,0.36682907,0.08807335,0.30963302,0.04760185,-0.06576678,-0.00943465,0.02588997,0.01004361,-0.03222294,0.03770501,0.25813475,0.18282329,0.12174495,0.31079346,0.13245206,0.01250391,-0.00922611,0.00969427,-0.00018089,0.02163961,0.22231457,0.03656918,0, 00:00:18.0
182,-0.04497654,-0.02240276,-0.00334660,-0.02312450,-0.00854112,-0.02114747,0.00187346,0.02721196,-0.17385630,-0.00880346,-0.03150152,0.06260984,-0.01030231,-0.00906984,-0.02347754,-0.01110947,-0.02314116,0.01425797,-0.10125130,0.01864855,0.10721071,0.19332224,0.19004412,-0.09297305,-0.02565267,-0.03490769,-0.00522144,-0.01971732,-0.03935099,-0.01943146,0.36660805,0.08680568,0.31138426,0.04863880,-0.06570059,-0.00933750,0.02622082,0.01017119,-0.03273742,0.03772606,0.25895637,0.18315992,0.12253620,0.31217995,0.13404986,0.01261534,-0.00908768,0.00990073,-0.00027919,0.02145970,0.22326802,0.03917233,0, 00:00:18.1
183,-0.04525588,-0.02227854,-0.00331191,-0.02329106,-0.00865857,-0.02113197,0.00191880,0.02739007,-0.17593013,-0.00922691,-0.03158421,0.06286368,-0.01003997,-0.00900748,-0.02373065,-0.01099250,-0.02303631,0.01467864,-0.10352914,0.01791574,0.10767674,0.19281812,0.18987057,-0.09298442,-0.02563499,-0.03517865,-0.00526079,-0.02002392,-0.03962728,-0.02034193,0.36629772,0.08548235,0.31327927,0.04914469,-0.06608268,-0.00931480,0.02651248,0.01022587,-0.03327864,0.03707875,0.25871822,0.18280104,0.12324254,0.31327108,0.13502145,0.01285283,-0.00905336,0.00995930,-0.00039402,0.02132530,0.22452328,0.04191379,0, 00:00:18.2
184,-0.04541992,-0.02228507,-0.00327416,-0.02353488,-0.00860992,-0.02107060,0.00191943,0.02754301,-0.17850727,-0.00991348,-0.03163598,0.06304172,-0.00997695,-0.00913612,-0.02402551,-0.01076597,-0.02323728,0.01480066,-0.10600594,0.01691511,0.10779680,0.19247681,0.18952949,-0.09356453,-0.02581190,-0.03537122,-0.00530632,-0.02036152,-0.04022600,-0.02166111,0.36574331,0.08403721,0.31494752,0.04933364,-0.06667715,-0.00933835,0.02678404,0.01033684,-0.03377509,0.03593657,0.25794691,0.18279606,0.12372545,0.31430566,0.13544828,0.01326451,-0.00912461,0.01000543,-0.00046930,0.02118432,0.22581604,0.04455282,0, 00:00:18.3
185,-0.04559252,-0.02234423,-0.00323055,-0.02383908,-0.00867133,-0.02115680,0.00186896,0.02773289,-0.18079254,-0.01059575,-0.03147203,0.06306054,-0.00988878,-0.00924050,-0.02417784,-0.01064645,-0.02356499,0.01455041,-0.10775188,0.01590458,0.10766485,0.19227722,0.18933402,-0.09442143,-0.02600576,-0.03556813,-0.00534513,-0.02078987,-0.04066785,-0.02277078,0.36527404,0.08278485,0.31677410,0.04941005,-0.06733104,-0.00942660,0.02702175,0.01043672,-0.03432759,0.03492834,0.25723389,0.18328863,0.12425880,0.31548938,0.13576896,0.01370343,-0.00922182,0.01008884,-0.00050433,0.02107270,0.22723649,0.04744910,0, 00:00:18.4
186,-0.04582996,-0.02209368,-0.00328894,-0.02417637,-0.00868901,-0.02115485,0.00181814,0.02801988,-0.18238574,-0.01130556,-0.03143457,0.06324507,-0.00975183,-0.00926019,-0.02438709,-0.01062805,-0.02373853,0.01435726,-0.10856164,0.01497293,0.10784352,0.19207375,0.18913266,-0.09505938,-0.02637719,-0.03572363,-0.00533172,-0.02119300,-0.04101297,-0.02324121,0.36476168,0.08140798,0.31834090,0.04954857,-0.06791174,-0.00947358,0.02729323,0.01056044,-0.03451692,0.03416393,0.25692576,0.18284573,0.12479273,0.31647056,0.13607030,0.01409656,-0.00932148,0.01025557,-0.00062173,0.02092802,0.22858299,0.04995538,0, 00:00:18.5
187,-0.04577105,-0.02183980,-0.00323510,-0.02443624,-0.00871301,-0.02126677,0.00178030,0.02837593,-0.18263943,-0.01157505,-0.03162514,0.06342121,-0.00955686,-0.00911558,-0.02475762,-0.01079547,-0.02408616,0.01405567,-0.10778889,0.01469060,0.10824873,0.19148463,0.18879119,-0.09439830,-0.02666792,-0.03589878,-0.00534025,-0.02160633,-0.04112015,-0.02270437,0.36386749,0.08039825,0.32008269,0.05023257,-0.06782317,-0.00941206,0.02764243,0.01066198,-0.03502718,0.03392623,0.25750405,0.18294407,0.12504329,0.31700784,0.13682590,0.01426868,-0.00926573,0.01046428,-0.00073613,0.02069376,0.22923167,0.05226490,0, 00:00:18.6
