Header
File Version,1.24
Patient Information
ID,10024
Name,
Comment,VFT (7-10-13) trial 2,,
Birth Date,0000/00/00
Age, 60y
Sex,Male
Analyze Information
AnalyzeMode,Integral
Pre Time[s],10.0
Post Time[s],5.0
Recovery Time[s],50.0
Base Time[s],5
Fitting Degree,1
HPF[Hz],No Filter
LPF[Hz],No Filter
Moving Average[s],5.0
Measure Information
Date,2015/04/21 13:14
Probe Type,adult
Mode,3x11
Wave[nm],695,830
Wave Length,CH1(703.0),CH1(827.2),CH2(703.0),CH2(826.5),CH3(703.0),CH3(826.5),CH4(703.0),CH4(827.2),CH5(703.0),CH5(827.2),CH6(703.0),CH6(827.2),CH7(703.0),CH7(827.2),CH8(703.7),CH8(827.2),CH9(703.7),CH9(827.2),CH10(704.5),CH10(827.9),CH11(703.0),CH11(827.2),CH12(703.7),CH12(827.2),CH13(703.0),CH13(826.5),CH14(703.7),CH14(827.2),CH15(703.0),CH15(827.2),CH16(703.0),CH16(827.9),CH17(703.0),CH17(827.2),CH18(704.5),CH18(826.5),CH19(703.7),CH19(827.2),CH20(704.5),CH20(826.5),CH21(704.5),CH21(827.9),CH22(703.7),CH22(827.2),CH23(703.7),CH23(827.2),CH24(703.7),CH24(827.2),CH25(703.7),CH25(827.2),CH26(703.0),CH26(827.9),CH27(703.0),CH27(827.9),CH28(704.5),CH28(826.5),CH29(704.5),CH29(826.5),CH30(704.5),CH30(826.5),CH31(704.5),CH31(826.5),CH32(703.7),CH32(826.5),CH33(703.7),CH33(827.2),CH34(704.5),CH34(826.5),CH35(703.7),CH35(827.2),CH36(703.0),CH36(826.5),CH37(703.0),CH37(827.9),CH38(704.5),CH38(826.5),CH39(704.5),CH39(826.5),CH40(703.7),CH40(827.2),CH41(704.5),CH41(826.5),CH42(704.5),CH42(825.7),CH43(703.7),CH43(826.5),CH44(704.5),CH44(826.5),CH45(704.5),CH45(826.5),CH46(703.0),CH46(826.5),CH47(703.0),CH47(826.5),CH48(704.5),CH48(826.5),CH49(704.5),CH49(826.5),CH50(703.7),CH50(827.2),CH51(703.7),CH51(827.2),CH52(704.5),CH52(825.7)
Analog Gain,6.58823500,6.58823500,6.58823500,6.58823500,4.86274500,4.86274500,4.86274500,4.86274500,8.07843100,8.07843100,8.07843100,8.07843100,1.25490200,1.25490200,1.25490200,1.25490200,5.33333300,5.33333300,5.33333300,5.33333300,14.50980400,14.50980400,6.58823500,6.58823500,1.25490200,1.25490200,4.86274500,4.86274500,1.25490200,1.25490200,8.07843100,8.07843100,1.25490200,1.25490200,1.25490200,1.25490200,1.25490200,1.25490200,5.33333300,5.33333300,22.74509800,22.74509800,14.50980400,14.50980400,1.25490200,1.25490200,1.25490200,1.25490200,1.25490200,1.25490200,1.25490200,1.25490200,1.25490200,1.25490200,1.25490200,1.25490200,1.25490200,1.25490200,1.25490200,1.25490200,22.74509800,22.74509800,14.50980400,14.50980400,13.41176500,13.41176500,1.25490200,1.25490200,1.25490200,1.25490200,1.25490200,1.25490200,1.25490200,1.25490200,1.25490200,1.25490200,1.25490200,1.25490200,1.25490200,1.25490200,5.64705900,5.64705900,22.74509800,22.74509800,13.41176500,13.41176500,13.41176500,13.41176500,1.25490200,1.25490200,1.25490200,1.25490200,1.25490200,1.25490200,1.25490200,1.25490200,1.25490200,1.25490200,1.25490200,1.25490200,5.64705900,5.64705900,5.64705900,5.64705900
Digital Gain,13.91000000,4.21000000,13.38000000,4.03000000,9.68000000,3.71000000,54.16000000,11.16000000,46.06000000,6.39000000,8.10000000,2.06000000,23.81000000,7.33000000,7.25000000,2.91000000,5.82000000,2.04000000,31.20000000,7.89000000,10.98000000,2.70000000,11.80000000,3.63000000,24.66000000,7.76000000,6.97000000,2.55000000,163.00000000,67.48000000,26.20000000,5.62000000,65.48000000,21.74000000,15.68000000,7.12000000,16.04000000,7.42000000,19.73000000,7.41000000,20.30000000,4.77000000,20.67000000,5.18000000,110.53000000,30.42000000,30.94000000,9.58000000,14.70000000,5.09000000,109.77000000,32.55000000,59.62000000,19.05000000,8.43000000,4.21000000,15.72000000,7.98000000,43.84000000,21.59000000,6.70000000,2.26000000,17.76000000,4.14000000,14.04000000,3.53000000,22.91000000,9.00000000,24.71000000,9.36000000,14.57000000,8.02000000,125.03000000,47.57000000,10.78000000,7.77000000,13.46000000,7.36000000,15.37000000,10.26000000,7.89000000,3.15000000,26.32000000,8.21000000,23.79000000,6.97000000,8.44000000,2.98000000,20.17000000,10.56000000,12.54000000,6.88000000,4.72000000,2.88000000,3.75000000,1.93000000,7.65000000,6.62000000,15.36000000,12.41000000,4.55000000,3.40000000,24.34000000,12.28000000
Sampling Period[s],0.1
StimType,STIM(VFT)
Stim Time[s]
A,60,B,15,C,15,D,15,E,15,F,15,G,15,H,15,I,15,J,15
Repeat Count,1
Exception Ch,0,0,0,0,0,0,0,0,0,0,0,0,0,0,1,0,0,0,0,0,0,0,0,0,0,0,0,0,0,0,0,0,0,0,0,0,0,0,0,0,0,0,0,0,0,0,0,0,0,0,0,0






Data
Probe1(Total),CH1,CH2,CH3,CH4,CH5,CH6,CH7,CH8,CH9,CH10,CH11,CH12,CH13,CH14,CH15,CH16,CH17,CH18,CH19,CH20,CH21,CH22,CH23,CH24,CH25,CH26,CH27,CH28,CH29,CH30,CH31,CH32,CH33,CH34,CH35,CH36,CH37,CH38,CH39,CH40,CH41,CH42,CH43,CH44,CH45,CH46,CH47,CH48,CH49,CH50,CH51,CH52,Mark,Time,BodyMovement,RemovalMark,PreScan
1,-0.01438471,-0.01374763,-0.02788281,-0.02111719,-0.01249262,-0.00861733,-0.02731303,-0.03115586,-0.03688478,-0.04918515,-0.01750394,-0.05366847,-0.01513216,-0.03459200,-0.02419219,-0.01997013,0.00014654,-0.02434413,-0.02735976,-0.04332600,-0.05416013,-0.11775033,-0.06747206,-0.02914777,-0.03008519,-0.02962098,-0.01302204,0.02392089,-0.04084496,-0.04325814,-0.00020662,-0.05842277,-0.04049207,-0.00423892,-0.09128469,-0.06309841,-0.06829806,-0.02542660,-0.01119964,-0.04570039,-0.01739199,-0.06772289,-0.10763479,0.01891224,-0.08182821,-0.07106891,-0.09779409,-0.17971697,-0.07560429,-0.02989130,-0.06340410,-0.07201120,0, 00:00:00.0
2,-0.01422373,-0.01399660,-0.02744965,-0.02049790,-0.01260586,-0.00879648,-0.02603586,-0.02998323,-0.03772868,-0.04910908,-0.01818137,-0.05406868,-0.01576030,-0.03404495,-0.02376153,-0.02021445,-0.00076915,-0.02342444,-0.02728641,-0.04435886,-0.05234537,-0.11459345,-0.06672844,-0.02890286,-0.03006520,-0.02992448,-0.01400272,0.02224736,-0.04152454,-0.04243782,0.00294793,-0.05749010,-0.04015309,-0.00418867,-0.09030827,-0.06188451,-0.06805435,-0.02700497,-0.01210569,-0.04494585,-0.01755518,-0.06749992,-0.10385799,0.02310425,-0.08112187,-0.07037345,-0.09712229,-0.17720275,-0.07618222,-0.02990385,-0.05891358,-0.07396875,0, 00:00:00.1
3,-0.01358257,-0.01371756,-0.02652275,-0.01973786,-0.01181289,-0.00817570,-0.02462219,-0.02866985,-0.03791658,-0.04870207,-0.01835852,-0.05349090,-0.01600733,-0.03299298,-0.02270818,-0.01911663,-0.00020140,-0.02207081,-0.02677675,-0.04468444,-0.05081702,-0.11104847,-0.06541976,-0.02834903,-0.02877843,-0.02928219,-0.01363503,0.02250046,-0.04138589,-0.04122974,0.00504863,-0.05613342,-0.03926641,-0.00406492,-0.08867407,-0.05917466,-0.06672959,-0.02696860,-0.01176858,-0.04390322,-0.01795099,-0.06721711,-0.10027904,0.02520764,-0.07971215,-0.06861059,-0.09520952,-0.17444938,-0.07528081,-0.02886510,-0.05508932,-0.07531846,0, 00:00:00.2
4,-0.01340712,-0.01373326,-0.02614589,-0.01930317,-0.01150516,-0.00799678,-0.02411092,-0.02818469,-0.03788285,-0.04860622,-0.01870740,-0.05304211,-0.01642026,-0.03255397,-0.02224652,-0.01873283,-0.00003302,-0.02156285,-0.02673969,-0.04482346,-0.05053212,-0.10781829,-0.06452204,-0.02815717,-0.02815334,-0.02905633,-0.01358643,0.02241164,-0.04133451,-0.04019606,0.00553079,-0.05527208,-0.03867590,-0.00461009,-0.08739556,-0.05745370,-0.06581391,-0.02686776,-0.01166685,-0.04365721,-0.01873470,-0.06746954,-0.09739833,0.02495040,-0.07726790,-0.06760419,-0.09329419,-0.17198169,-0.07445151,-0.02908740,-0.05326430,-0.07725492,0, 00:00:00.3
5,-0.01343391,-0.01386323,-0.02606502,-0.01922929,-0.01143232,-0.00810835,-0.02409705,-0.02818963,-0.03769495,-0.04862425,-0.01899362,-0.05262890,-0.01681050,-0.03243124,-0.02173575,-0.01867699,-0.00026252,-0.02166239,-0.02692292,-0.04441526,-0.05112254,-0.10490967,-0.06342617,-0.02816176,-0.02791240,-0.02913736,-0.01370788,0.02174261,-0.04140480,-0.03960573,0.00502127,-0.05448454,-0.03846661,-0.00556474,-0.08624497,-0.05638795,-0.06499094,-0.02706081,-0.01191644,-0.04388576,-0.01973988,-0.06837995,-0.09509821,0.02350375,-0.07405187,-0.06725568,-0.09154120,-0.16997060,-0.07381114,-0.02992137,-0.05267731,-0.07900359,0, 00:00:00.4
6,-0.01406191,-0.01448396,-0.02662417,-0.02001793,-0.01194866,-0.00876921,-0.02515163,-0.02915072,-0.03768881,-0.04902343,-0.01976048,-0.05295828,-0.01737868,-0.03303170,-0.02263180,-0.01966819,-0.00103070,-0.02283297,-0.02752527,-0.04425806,-0.05297798,-0.10261069,-0.06261957,-0.02848620,-0.02855581,-0.02992063,-0.01437371,0.02011279,-0.04199313,-0.03964611,0.00360756,-0.05409050,-0.03864257,-0.00671494,-0.08559485,-0.05655882,-0.06495002,-0.02784546,-0.01281586,-0.04521716,-0.02109567,-0.07046927,-0.09383723,0.02137442,-0.07172868,-0.06761205,-0.09033525,-0.16789901,-0.07380586,-0.03247652,-0.05388710,-0.08141761,0, 00:00:00.5
7,-0.01520352,-0.01556818,-0.02763279,-0.02149694,-0.01321871,-0.00997059,-0.02696936,-0.03084532,-0.03795889,-0.05000660,-0.02106291,-0.05384272,-0.01814851,-0.03425458,-0.02392133,-0.02143542,-0.00269795,-0.02484230,-0.02862758,-0.04452889,-0.05566891,-0.10101289,-0.06214991,-0.02926728,-0.03005731,-0.03141580,-0.01569274,0.01763074,-0.04301458,-0.04015923,0.00127763,-0.05432797,-0.03908914,-0.00797903,-0.08548131,-0.05768600,-0.06584060,-0.02912904,-0.01429519,-0.04736829,-0.02275218,-0.07279170,-0.09317626,0.01876435,-0.07060535,-0.06852784,-0.08965766,-0.16510905,-0.07457725,-0.03631297,-0.05624113,-0.08407643,0, 00:00:00.6
8,-0.01601040,-0.01623809,-0.02794726,-0.02218089,-0.01422610,-0.01105053,-0.02779966,-0.03141714,-0.03818688,-0.05045129,-0.02239060,-0.05429460,-0.01886226,-0.03480604,-0.02424401,-0.02303469,-0.00430351,-0.02575870,-0.02935323,-0.04487045,-0.05717465,-0.09931236,-0.06189269,-0.03006343,-0.03119510,-0.03262721,-0.01718309,0.01528966,-0.04362950,-0.04022075,-0.00059988,-0.05441584,-0.03924484,-0.00914241,-0.08512639,-0.05828037,-0.06672899,-0.03051409,-0.01558699,-0.04752891,-0.02377320,-0.07361983,-0.09212027,0.01624128,-0.06958513,-0.06913298,-0.08887701,-0.16192940,-0.07537765,-0.03802316,-0.05598474,-0.08588144,0, 00:00:00.7
9,-0.01517942,-0.01530182,-0.02633519,-0.02091274,-0.01339245,-0.01043984,-0.02587538,-0.02955785,-0.03767208,-0.04917084,-0.02259418,-0.05266837,-0.01881351,-0.03325982,-0.02311739,-0.02193297,-0.00413812,-0.02385387,-0.02853089,-0.04464689,-0.05514642,-0.09641212,-0.06041339,-0.02967482,-0.02970610,-0.03164212,-0.01692896,0.01555764,-0.04249952,-0.03861904,-0.00093992,-0.05311939,-0.03794914,-0.00946794,-0.08318030,-0.05554988,-0.06536891,-0.03013706,-0.01494550,-0.04421333,-0.02348607,-0.07263251,-0.08921721,0.01472020,-0.06754720,-0.06744006,-0.08643909,-0.15894505,-0.07440662,-0.03497317,-0.05165525,-0.08583278,0, 00:00:00.8
10,-0.01426560,-0.01427158,-0.02471725,-0.01951901,-0.01211725,-0.00952185,-0.02438142,-0.02799974,-0.03683079,-0.04792883,-0.02249183,-0.05076923,-0.01854871,-0.03169258,-0.02169128,-0.02050257,-0.00287238,-0.02206301,-0.02751287,-0.04375227,-0.05314549,-0.09322015,-0.05858924,-0.02892762,-0.02780766,-0.03024799,-0.01583897,0.01725178,-0.04094709,-0.03705803,-0.00110294,-0.05153421,-0.03621525,-0.00945321,-0.08080275,-0.05221973,-0.06290210,-0.02854197,-0.01345296,-0.04139899,-0.02306914,-0.07253631,-0.08604529,0.01363712,-0.06552118,-0.06499680,-0.08314297,-0.15541454,-0.07240014,-0.03229702,-0.04854397,-0.08571661,0, 00:00:00.9
11,-0.01364516,-0.01348004,-0.02356318,-0.01854489,-0.01136741,-0.00892652,-0.02337793,-0.02684428,-0.03595715,-0.04669030,-0.02245525,-0.04912202,-0.01827961,-0.03045971,-0.02115571,-0.01953766,-0.00190823,-0.02060519,-0.02669132,-0.04285618,-0.05192360,-0.09022322,-0.05683570,-0.02831066,-0.02640824,-0.02900809,-0.01499903,0.01861298,-0.03945382,-0.03553553,-0.00146248,-0.05010981,-0.03459620,-0.00935636,-0.07853001,-0.04941317,-0.06060023,-0.02698576,-0.01205528,-0.03914548,-0.02270504,-0.07279229,-0.08323959,0.01262574,-0.06373566,-0.06252754,-0.07982412,-0.15173289,-0.07035793,-0.03042264,-0.04619409,-0.08564069,0, 00:00:01.0
12,-0.01334980,-0.01310048,-0.02280341,-0.01801655,-0.01094324,-0.00863543,-0.02300997,-0.02623449,-0.03511995,-0.04555160,-0.02259394,-0.04783086,-0.01813291,-0.02962756,-0.02035269,-0.01887539,-0.00140012,-0.01973145,-0.02615578,-0.04210196,-0.05132771,-0.08766367,-0.05511533,-0.02787717,-0.02546792,-0.02805265,-0.01438554,0.01947622,-0.03818830,-0.03428686,-0.00202589,-0.04889092,-0.03313817,-0.00932091,-0.07641733,-0.04720330,-0.05889366,-0.02553424,-0.01090045,-0.03778906,-0.02250906,-0.07306185,-0.08094737,0.01157589,-0.06214006,-0.06029318,-0.07668292,-0.14793546,-0.06843355,-0.02974836,-0.04507761,-0.08563751,0, 00:00:01.1
13,-0.01353949,-0.01315677,-0.02268106,-0.01797587,-0.01112599,-0.00888009,-0.02358456,-0.02645644,-0.03442462,-0.04497936,-0.02304483,-0.04713140,-0.01822142,-0.02944221,-0.02003795,-0.01912320,-0.00159166,-0.01988595,-0.02608522,-0.04121736,-0.05176985,-0.08546896,-0.05385650,-0.02785501,-0.02533176,-0.02786407,-0.01427587,0.01935204,-0.03742715,-0.03365588,-0.00293500,-0.04815497,-0.03218355,-0.00962087,-0.07478309,-0.04607182,-0.05691006,-0.02472664,-0.01034982,-0.03762594,-0.02264109,-0.07360242,-0.07908168,0.01000544,-0.06067553,-0.05871421,-0.07417745,-0.14479092,-0.06711101,-0.03071120,-0.04542701,-0.08612657,0, 00:00:01.2
14,-0.01412957,-0.01354753,-0.02304524,-0.01878122,-0.01198435,-0.00965126,-0.02493974,-0.02742826,-0.03402624,-0.04477924,-0.02384272,-0.04703175,-0.01855482,-0.02991294,-0.02079425,-0.02021177,-0.00250500,-0.02093066,-0.02648577,-0.04062190,-0.05305428,-0.08369584,-0.05310224,-0.02827312,-0.02600137,-0.02851691,-0.01476064,0.01825713,-0.03716029,-0.03336112,-0.00428176,-0.04789650,-0.03173009,-0.01021838,-0.07363813,-0.04601518,-0.05627814,-0.02462279,-0.01052108,-0.03843493,-0.02314211,-0.07428628,-0.07772493,0.00808809,-0.05953652,-0.05790523,-0.07244547,-0.14259225,-0.06662247,-0.03293797,-0.04682176,-0.08704125,0, 00:00:01.3
15,-0.01412880,-0.01348607,-0.02256130,-0.01857861,-0.01249113,-0.01002066,-0.02477483,-0.02705531,-0.03352322,-0.04390517,-0.02434693,-0.04627930,-0.01867361,-0.02956939,-0.02107085,-0.02067344,-0.00325839,-0.02057360,-0.02637022,-0.04003128,-0.05237363,-0.08161970,-0.05207533,-0.02832591,-0.02603478,-0.02849455,-0.01524018,0.01734311,-0.03641884,-0.03244169,-0.00482384,-0.04729654,-0.03083826,-0.01044389,-0.07203994,-0.04515007,-0.05549336,-0.02452959,-0.01048709,-0.03706421,-0.02305403,-0.07353459,-0.07567655,0.00672204,-0.05822091,-0.05660110,-0.07064413,-0.14088735,-0.06623387,-0.03266991,-0.04520245,-0.08690274,0, 00:00:01.4
16,-0.01301486,-0.01234672,-0.02088355,-0.01733499,-0.01159724,-0.00920071,-0.02307486,-0.02523983,-0.03244555,-0.04205935,-0.02401312,-0.04424550,-0.01817887,-0.02791621,-0.01932132,-0.01942085,-0.00259073,-0.01851230,-0.02523541,-0.03895656,-0.04989699,-0.07868091,-0.05022168,-0.02751854,-0.02428493,-0.02718753,-0.01455694,0.01828088,-0.03465154,-0.03067169,-0.00438687,-0.04566902,-0.02892244,-0.01011071,-0.06930768,-0.04197848,-0.05338667,-0.02317464,-0.00914990,-0.03394943,-0.02218361,-0.07151807,-0.07236676,0.00632569,-0.05617571,-0.05376256,-0.06765551,-0.13908455,-0.06455002,-0.02979729,-0.04159115,-0.08534223,0, 00:00:01.5
17,-0.01215366,-0.01135639,-0.01966895,-0.01623981,-0.01065124,-0.00841234,-0.02196412,-0.02396757,-0.03118925,-0.04046784,-0.02350866,-0.04236050,-0.01758144,-0.02655004,-0.01798684,-0.01824189,-0.00170708,-0.01684220,-0.02411421,-0.03751727,-0.04834367,-0.07569121,-0.04831884,-0.02653103,-0.02271424,-0.02597450,-0.01367838,0.01951450,-0.03284078,-0.02917666,-0.00420842,-0.04397257,-0.02725779,-0.00961020,-0.06662504,-0.03909246,-0.05081454,-0.02148259,-0.00760021,-0.03173503,-0.02124585,-0.06956010,-0.06930854,0.00621409,-0.05425459,-0.05086743,-0.06459683,-0.13711390,-0.06259257,-0.02783044,-0.03930918,-0.08382393,0, 00:00:01.6
18,-0.01136321,-0.01057906,-0.01886859,-0.01524561,-0.00966527,-0.00775392,-0.02092922,-0.02280998,-0.02969981,-0.03883457,-0.02275127,-0.04062360,-0.01685843,-0.02545664,-0.01710872,-0.01717220,-0.00100957,-0.01552575,-0.02301082,-0.03579647,-0.04716790,-0.07277525,-0.04633073,-0.02532526,-0.02147758,-0.02483877,-0.01305964,0.02016538,-0.03125603,-0.02793063,-0.00421501,-0.04229037,-0.02618177,-0.00902818,-0.06412232,-0.03689315,-0.04884780,-0.02037666,-0.00659656,-0.02992630,-0.02025827,-0.06779203,-0.06650975,0.00651926,-0.05228825,-0.04818077,-0.06173659,-0.13374622,-0.06064709,-0.02628824,-0.03755927,-0.08213361,0, 00:00:01.7
19,-0.01084820,-0.01020458,-0.01852935,-0.01476239,-0.00893716,-0.00724443,-0.02018959,-0.02209972,-0.02815469,-0.03737636,-0.02184280,-0.03920807,-0.01620175,-0.02473672,-0.01648824,-0.01632258,-0.00063154,-0.01478409,-0.02195687,-0.03386375,-0.04654735,-0.07002495,-0.04452793,-0.02409010,-0.02058302,-0.02399316,-0.01259063,0.02013568,-0.03010871,-0.02696272,-0.00460218,-0.04080841,-0.02582006,-0.00861969,-0.06185568,-0.03554405,-0.04744814,-0.01983244,-0.00625793,-0.02901227,-0.01947151,-0.06699097,-0.06436191,0.00690324,-0.05024064,-0.04593910,-0.05917765,-0.12890969,-0.05861819,-0.02583115,-0.03701581,-0.08077811,0, 00:00:01.8
20,-0.01081404,-0.01024728,-0.01863975,-0.01473883,-0.00881654,-0.00724020,-0.02005979,-0.02198616,-0.02686862,-0.03630007,-0.02140827,-0.03844227,-0.01587848,-0.02455182,-0.01626792,-0.01604356,-0.00093452,-0.01476581,-0.02137340,-0.03207510,-0.04666101,-0.06790113,-0.04307374,-0.02333186,-0.02027208,-0.02367059,-0.01245240,0.01935448,-0.02945241,-0.02628996,-0.00543471,-0.03972176,-0.02581696,-0.00845744,-0.05998686,-0.03502100,-0.04602754,-0.01962614,-0.00640997,-0.02895828,-0.01905842,-0.06674601,-0.06284088,0.00683720,-0.04855958,-0.04430571,-0.05713810,-0.12445582,-0.05691391,-0.02634173,-0.03749935,-0.07986889,0, 00:00:01.9
21,-0.01112654,-0.01057439,-0.01898502,-0.01502619,-0.00909068,-0.00760104,-0.02039227,-0.02220215,-0.02582800,-0.03555536,-0.02135956,-0.03814510,-0.01572254,-0.02468886,-0.01647308,-0.01645728,-0.00149241,-0.01518649,-0.02108793,-0.03060357,-0.04701797,-0.06634507,-0.04206473,-0.02291155,-0.02047801,-0.02367044,-0.01275226,0.01800437,-0.02917496,-0.02585786,-0.00636669,-0.03898656,-0.02592690,-0.00838513,-0.05850339,-0.03505490,-0.04479691,-0.01962086,-0.00691994,-0.02896304,-0.01897064,-0.06664211,-0.06179252,0.00662610,-0.04743736,-0.04306653,-0.05551820,-0.11962068,-0.05568358,-0.02721331,-0.03803033,-0.07936903,0, 00:00:02.0
22,-0.01067553,-0.01024690,-0.01829642,-0.01438586,-0.00863743,-0.00733137,-0.01920391,-0.02095903,-0.02462586,-0.03405360,-0.02098786,-0.03709328,-0.01531118,-0.02377141,-0.01607283,-0.01588201,-0.00144404,-0.01397961,-0.02002719,-0.02905934,-0.04561193,-0.06418755,-0.04082124,-0.02199854,-0.01966093,-0.02293065,-0.01249556,0.01742938,-0.02822076,-0.02470061,-0.00628583,-0.03765299,-0.02547909,-0.00798851,-0.05644801,-0.03361728,-0.04296286,-0.01913995,-0.00669312,-0.02663779,-0.01829251,-0.06540678,-0.05995188,0.00692142,-0.04588608,-0.04094120,-0.05321877,-0.11318014,-0.05406518,-0.02532710,-0.03548035,-0.07786613,0, 00:00:02.1
23,-0.00963830,-0.00939308,-0.01698564,-0.01302969,-0.00739301,-0.00630102,-0.01731505,-0.01909737,-0.02309005,-0.03205149,-0.02006688,-0.03529898,-0.01458417,-0.02219901,-0.01460098,-0.01414101,-0.00036419,-0.01197558,-0.01852063,-0.02711975,-0.04331123,-0.06153402,-0.03908191,-0.02060035,-0.01774722,-0.02121560,-0.01121034,0.01839864,-0.02660294,-0.02298279,-0.00565203,-0.03582761,-0.02417970,-0.00716784,-0.05369065,-0.03073168,-0.04033663,-0.01749461,-0.00537906,-0.02385807,-0.01704041,-0.06351244,-0.05745381,0.00744822,-0.04382163,-0.03788223,-0.05014781,-0.10768314,-0.05141461,-0.02215745,-0.03229301,-0.07560676,0, 00:00:02.2
24,-0.00889507,-0.00884566,-0.01600786,-0.01212144,-0.00639733,-0.00558851,-0.01606656,-0.01784648,-0.02173523,-0.03013044,-0.01933041,-0.03382356,-0.01386328,-0.02106794,-0.01322889,-0.01281805,0.00058019,-0.01050710,-0.01757465,-0.02512278,-0.04146320,-0.05918659,-0.03745746,-0.01943367,-0.01622581,-0.01976929,-0.01004449,0.01941437,-0.02505860,-0.02166101,-0.00514642,-0.03425171,-0.02288944,-0.00644127,-0.05109880,-0.02842277,-0.03844589,-0.01573057,-0.00406872,-0.02237471,-0.01574895,-0.06164260,-0.05532259,0.00758434,-0.04188331,-0.03512540,-0.04728918,-0.10339929,-0.04873207,-0.02017512,-0.03027643,-0.07377870,0, 00:00:02.3
25,-0.00845161,-0.00850022,-0.01529928,-0.01147254,-0.00581383,-0.00516871,-0.01551375,-0.01711420,-0.02051413,-0.02833967,-0.01880169,-0.03268231,-0.01325221,-0.02027979,-0.01241120,-0.01200377,0.00113128,-0.00961285,-0.01707402,-0.02344251,-0.04000079,-0.05711380,-0.03604898,-0.01849253,-0.01521866,-0.01871030,-0.00908359,0.02006380,-0.02369961,-0.02080532,-0.00479270,-0.03277094,-0.02173444,-0.00580144,-0.04879048,-0.02664357,-0.03638540,-0.01420405,-0.00295922,-0.02191465,-0.01457223,-0.05975241,-0.05339506,0.00760754,-0.04030697,-0.03272104,-0.04469975,-0.09940399,-0.04627158,-0.01951712,-0.02918998,-0.07223894,0, 00:00:02.4
26,-0.00846710,-0.00850162,-0.01508196,-0.01126541,-0.00599684,-0.00527163,-0.01584967,-0.01720422,-0.01952819,-0.02709179,-0.01868479,-0.03219637,-0.01289233,-0.02003722,-0.01238460,-0.01195696,0.00103104,-0.00966652,-0.01708396,-0.02214609,-0.03960138,-0.05565894,-0.03466118,-0.01799677,-0.01500832,-0.01817538,-0.00860263,0.02004443,-0.02278202,-0.02049538,-0.00492346,-0.03175519,-0.02090723,-0.00540575,-0.04700857,-0.02573803,-0.03457713,-0.01322475,-0.00230034,-0.02253988,-0.01382157,-0.05849322,-0.05189346,0.00748014,-0.03927835,-0.03097685,-0.04271794,-0.09613439,-0.04450339,-0.02046664,-0.02952007,-0.07115755,0, 00:00:02.5
27,-0.00918974,-0.00915929,-0.01542327,-0.01175114,-0.00716328,-0.00638011,-0.01747858,-0.01827778,-0.01843017,-0.02581451,-0.01903396,-0.03221066,-0.01280694,-0.02034208,-0.01286585,-0.01325666,-0.00035352,-0.01080382,-0.01751892,-0.02065535,-0.04002659,-0.05245220,-0.03267937,-0.01759630,-0.01583843,-0.01835611,-0.00897055,0.01822792,-0.02200635,-0.02038033,-0.00503391,-0.03004541,-0.01917306,-0.00506152,-0.04471563,-0.02522496,-0.03241957,-0.01275903,-0.00210256,-0.02445248,-0.01298159,-0.05695114,-0.04850326,0.00884869,-0.03788986,-0.02907065,-0.04002368,-0.09237916,-0.04278130,-0.02416069,-0.03072376,-0.07102687,0, 00:00:02.6
28,-0.00996002,-0.00993527,-0.01585834,-0.01241449,-0.00848624,-0.00766800,-0.01905692,-0.01934964,-0.01770252,-0.02463726,-0.01972511,-0.03249954,-0.01289571,-0.02084865,-0.01343979,-0.01490063,-0.00196729,-0.01208686,-0.01815556,-0.01941980,-0.04043811,-0.04944148,-0.03101722,-0.01747841,-0.01697186,-0.01905023,-0.00986349,0.01592876,-0.02151755,-0.02038350,-0.00519707,-0.02891429,-0.01767045,-0.00497991,-0.04265789,-0.02508863,-0.03094073,-0.01284818,-0.00246088,-0.02628364,-0.01247699,-0.05502878,-0.04567181,0.00997662,-0.03661365,-0.02762396,-0.03797719,-0.08910986,-0.04177728,-0.02790908,-0.03177734,-0.07085663,0, 00:00:02.7
29,-0.00960003,-0.00972154,-0.01485977,-0.01169140,-0.00886070,-0.00797743,-0.01839855,-0.01830202,-0.01682885,-0.02252410,-0.01978445,-0.03159510,-0.01261545,-0.01990420,-0.01299529,-0.01511490,-0.00291181,-0.01113667,-0.01782317,-0.01847530,-0.03836393,-0.04555402,-0.02914452,-0.01667315,-0.01654151,-0.01864408,-0.01015901,0.01470493,-0.02021908,-0.01942828,-0.00396980,-0.02709198,-0.01569920,-0.00448897,-0.03988042,-0.02307585,-0.02940796,-0.01256979,-0.00209963,-0.02518151,-0.01146647,-0.05141438,-0.04166737,0.01174572,-0.03453045,-0.02515930,-0.03541659,-0.08605944,-0.04031373,-0.02781557,-0.02906952,-0.06919185,0, 00:00:02.8
30,-0.00858236,-0.00889746,-0.01328198,-0.01018131,-0.00803172,-0.00731941,-0.01682405,-0.01646842,-0.01566661,-0.01997499,-0.01923668,-0.02990995,-0.01192204,-0.01819120,-0.01146883,-0.01395217,-0.00258658,-0.00919667,-0.01676456,-0.01729930,-0.03552097,-0.04115307,-0.02668842,-0.01533029,-0.01484186,-0.01717547,-0.00935306,0.01492698,-0.01833175,-0.01799663,-0.00193434,-0.02461480,-0.01341307,-0.00363632,-0.03642499,-0.01957805,-0.02678891,-0.01137050,-0.00080250,-0.02328081,-0.01054431,-0.04743749,-0.03727330,0.01438012,-0.03203418,-0.02163951,-0.03216900,-0.08299333,-0.03788238,-0.02620215,-0.02594405,-0.06703817,0, 00:00:02.9
31,-0.00776582,-0.00833651,-0.01210428,-0.00902919,-0.00723800,-0.00667544,-0.01565692,-0.01509580,-0.01435633,-0.01775768,-0.01849535,-0.02843713,-0.01116518,-0.01677847,-0.01012656,-0.01288179,-0.00190553,-0.00769628,-0.01577391,-0.01611055,-0.03383416,-0.03691607,-0.02423313,-0.01385661,-0.01335540,-0.01566832,-0.00846071,0.01529391,-0.01661295,-0.01665976,0.00023281,-0.02202849,-0.01140362,-0.00268514,-0.03303911,-0.01634423,-0.02415075,-0.00997482,0.00046852,-0.02213355,-0.00986215,-0.04416901,-0.03326552,0.01745470,-0.02975999,-0.01821736,-0.02884945,-0.07945100,-0.03525212,-0.02540015,-0.02420970,-0.06513565,0, 00:00:03.0
32,-0.00788902,-0.00884945,-0.01232672,-0.00956693,-0.00749435,-0.00702709,-0.01628897,-0.01543297,-0.01345242,-0.01680762,-0.01840562,-0.02815095,-0.01086487,-0.01670205,-0.01042476,-0.01317142,-0.00210951,-0.00818916,-0.01562603,-0.01505646,-0.03416670,-0.03369455,-0.02251851,-0.01291183,-0.01339471,-0.01540410,-0.00853197,0.01408739,-0.01605258,-0.01627764,0.00106913,-0.02028988,-0.01044354,-0.00213578,-0.03061145,-0.01514926,-0.02262817,-0.00976559,0.00049267,-0.02342310,-0.00982646,-0.04293280,-0.03056554,0.01999713,-0.02833965,-0.01606564,-0.02645554,-0.07571830,-0.03364521,-0.02796055,-0.02571800,-0.06471318,0, 00:00:03.1
33,-0.00863660,-0.00988475,-0.01306286,-0.01064289,-0.00864658,-0.00807213,-0.01739516,-0.01629319,-0.01299747,-0.01654620,-0.01885943,-0.02860290,-0.01101459,-0.01725052,-0.01143860,-0.01426892,-0.00358608,-0.00944545,-0.01596812,-0.01423020,-0.03496716,-0.03112054,-0.02156769,-0.01254936,-0.01442410,-0.01632603,-0.00952145,0.01123083,-0.01627051,-0.01652526,0.00099987,-0.01914574,-0.00993671,-0.00200121,-0.02904641,-0.01527273,-0.02209667,-0.01082170,-0.00057956,-0.02541558,-0.01006060,-0.04238942,-0.02864176,0.02180227,-0.02735570,-0.01503830,-0.02512991,-0.07225370,-0.03301548,-0.03157360,-0.02775881,-0.06470935,0, 00:00:03.2
34,-0.00944053,-0.01076715,-0.01387452,-0.01164434,-0.00966570,-0.00908685,-0.01851771,-0.01716412,-0.01272463,-0.01652747,-0.01932397,-0.02904278,-0.01144968,-0.01792750,-0.01236839,-0.01558868,-0.00533295,-0.01084998,-0.01641324,-0.01365695,-0.03590804,-0.02882738,-0.02096366,-0.01247222,-0.01550102,-0.01726635,-0.01064312,0.00817930,-0.01676959,-0.01666854,0.00059714,-0.01832325,-0.00961267,-0.00218894,-0.02777116,-0.01557827,-0.02179080,-0.01217004,-0.00198602,-0.02738125,-0.01036760,-0.04215492,-0.02665331,0.02293082,-0.02629870,-0.01450598,-0.02414990,-0.06858408,-0.03270861,-0.03504347,-0.02954979,-0.06506625,0, 00:00:03.3
35,-0.00979835,-0.01127630,-0.01396019,-0.01198805,-0.01015971,-0.00978830,-0.01848844,-0.01702707,-0.01247966,-0.01601870,-0.01977420,-0.02906261,-0.01175815,-0.01797075,-0.01295650,-0.01636261,-0.00674033,-0.01122260,-0.01654991,-0.01326211,-0.03540850,-0.02610854,-0.02016064,-0.01229118,-0.01599648,-0.01781264,-0.01142900,0.00562166,-0.01688879,-0.01629975,0.00079664,-0.01735417,-0.00886659,-0.00246324,-0.02627196,-0.01520222,-0.02122822,-0.01333327,-0.00313743,-0.02749460,-0.01007759,-0.04102143,-0.02399261,0.02369221,-0.02486287,-0.01380844,-0.02285424,-0.06333248,-0.03229882,-0.03638506,-0.02864773,-0.06490922,0, 00:00:03.4
36,-0.00891157,-0.01058628,-0.01236279,-0.01051581,-0.00935968,-0.00917144,-0.01653660,-0.01504712,-0.01190014,-0.01414680,-0.01963478,-0.02762041,-0.01156709,-0.01632667,-0.01176481,-0.01512292,-0.00655746,-0.00933436,-0.01568039,-0.01271235,-0.03207457,-0.02247740,-0.01862585,-0.01149014,-0.01440943,-0.01656747,-0.01070518,0.00540709,-0.01571288,-0.01485021,0.00241993,-0.01544884,-0.00663940,-0.00230531,-0.02355352,-0.01202087,-0.01970389,-0.01274416,-0.00262253,-0.02477513,-0.00875384,-0.03779879,-0.02002489,0.02482596,-0.02247027,-0.01136391,-0.01988048,-0.05656204,-0.03040771,-0.03395103,-0.02391652,-0.06328809,0, 00:00:03.5
37,-0.00777870,-0.00966359,-0.01036906,-0.00876039,-0.00813853,-0.00808198,-0.01457205,-0.01302443,-0.01113262,-0.01215957,-0.01944210,-0.02579271,-0.01112477,-0.01439905,-0.00994156,-0.01324684,-0.00557411,-0.00708547,-0.01467491,-0.01170618,-0.02853294,-0.01846765,-0.01658956,-0.01060837,-0.01225934,-0.01464937,-0.00917893,0.00672666,-0.01390654,-0.01313242,0.00438017,-0.01319910,-0.00367157,-0.00183449,-0.02044342,-0.00788137,-0.01727316,-0.01076506,-0.00101748,-0.02188357,-0.00693017,-0.03400627,-0.01574927,0.02596024,-0.01985380,-0.00815123,-0.01599350,-0.04940028,-0.02757627,-0.03105644,-0.01911654,-0.06132476,0, 00:00:03.6
38,-0.00710197,-0.00896135,-0.00892281,-0.00776317,-0.00720881,-0.00739275,-0.01372967,-0.01198476,-0.01030145,-0.01063205,-0.01938066,-0.02436216,-0.01072000,-0.01305661,-0.00857879,-0.01184534,-0.00453386,-0.00580308,-0.01403050,-0.01042525,-0.02625488,-0.01465177,-0.01472239,-0.00992467,-0.01071763,-0.01304415,-0.00777862,0.00802076,-0.01232043,-0.01181710,0.00585273,-0.01104464,-0.00076268,-0.00135819,-0.01757469,-0.00438698,-0.01490377,-0.00865034,0.00059636,-0.02041548,-0.00528020,-0.03076162,-0.01173167,0.02705555,-0.01760751,-0.00523298,-0.01198383,-0.04185485,-0.02473508,-0.02997359,-0.01632474,-0.05997792,0, 00:00:03.7
39,-0.00749251,-0.00922333,-0.00876951,-0.00813026,-0.00767765,-0.00790410,-0.01467891,-0.01260011,-0.00984261,-0.01011962,-0.02003179,-0.02395346,-0.01078138,-0.01306397,-0.00864567,-0.01197934,-0.00484512,-0.00647335,-0.01428824,-0.00948254,-0.02609317,-0.01171566,-0.01352208,-0.00999902,-0.01091716,-0.01285776,-0.00759020,0.00765633,-0.01167792,-0.01133187,0.00615356,-0.00971575,0.00130172,-0.00150188,-0.01570638,-0.00306760,-0.01294336,-0.00773055,0.00102511,-0.02119674,-0.00424081,-0.02909564,-0.00875572,0.02754227,-0.01612679,-0.00377020,-0.00897886,-0.03437590,-0.02301537,-0.03206910,-0.01621913,-0.05988771,0, 00:00:03.8
40,-0.00804415,-0.00967421,-0.00893739,-0.00884076,-0.00867921,-0.00869565,-0.01583207,-0.01346363,-0.00962235,-0.00988346,-0.02082807,-0.02382825,-0.01117972,-0.01336932,-0.00902795,-0.01277739,-0.00595414,-0.00756551,-0.01488006,-0.00878135,-0.02609380,-0.00911340,-0.01257057,-0.01030991,-0.01167298,-0.01311505,-0.00801322,0.00615563,-0.01138649,-0.01108041,0.00614344,-0.00889279,0.00297922,-0.00193764,-0.01420393,-0.00253258,-0.01213282,-0.00776209,0.00066619,-0.02231137,-0.00334452,-0.02804640,-0.00592950,0.02779523,-0.01483760,-0.00301942,-0.00669659,-0.02735624,-0.02198390,-0.03470052,-0.01622156,-0.06008861,0, 00:00:03.9
41,-0.00873423,-0.01016485,-0.00923439,-0.00960881,-0.00977742,-0.00957983,-0.01712538,-0.01434579,-0.00961401,-0.00980068,-0.02177268,-0.02389787,-0.01169382,-0.01376799,-0.00989549,-0.01369160,-0.00718404,-0.00886049,-0.01543418,-0.00835551,-0.02604581,-0.00667964,-0.01172027,-0.01070093,-0.01266407,-0.01367720,-0.00854515,0.00432175,-0.01129587,-0.01103020,0.00607109,-0.00813956,0.00426455,-0.00244798,-0.01298884,-0.00226074,-0.01141534,-0.00814412,-0.00008599,-0.02331332,-0.00283039,-0.02775270,-0.00322943,0.02843548,-0.01392266,-0.00257288,-0.00473680,-0.01987202,-0.02134183,-0.03740035,-0.01621396,-0.06042365,0, 00:00:04.0
42,-0.00823476,-0.00970016,-0.00819170,-0.00899890,-0.00981175,-0.00949900,-0.01618210,-0.01312583,-0.00935195,-0.00854940,-0.02215230,-0.02270190,-0.01176961,-0.01265800,-0.00900417,-0.01325816,-0.00745900,-0.00786806,-0.01480022,-0.00802048,-0.02373471,-0.00318783,-0.01047994,-0.01041022,-0.01212390,-0.01305618,-0.00823059,0.00362895,-0.01028316,-0.00980454,0.00730994,-0.00652679,0.00613951,-0.00255519,-0.01100014,-0.00002459,-0.00924392,-0.00780641,-0.00004316,-0.02102311,-0.00152445,-0.02544417,0.00055605,0.02993581,-0.01236249,-0.00085060,-0.00193292,-0.01152180,-0.01998428,-0.03616752,-0.01217254,-0.05906557,0, 00:00:04.1
43,-0.00656958,-0.00813689,-0.00596986,-0.00696836,-0.00808369,-0.00799185,-0.01346829,-0.01035429,-0.00851147,-0.00645021,-0.02153555,-0.02009872,-0.01124350,-0.01017370,-0.00645039,-0.01085157,-0.00586737,-0.00503008,-0.01310594,-0.00714700,-0.01919945,0.00142789,-0.00831475,-0.00918225,-0.00955476,-0.01078510,-0.00646160,0.00529351,-0.00808647,-0.00756348,0.00968113,-0.00411062,0.00905050,-0.00211473,-0.00771196,0.00455337,-0.00599717,-0.00572848,0.00156630,-0.01683037,0.00065646,-0.02127030,0.00554473,0.03206044,-0.00978435,0.00259368,0.00233114,-0.00281595,-0.01682123,-0.03193690,-0.00599490,-0.05605775,0, 00:00:04.2
44,-0.00487125,-0.00653483,-0.00370191,-0.00461912,-0.00599478,-0.00623851,-0.01060332,-0.00749263,-0.00732370,-0.00423421,-0.02047196,-0.01706069,-0.01042520,-0.00759189,-0.00402691,-0.00805827,-0.00387522,-0.00199195,-0.01131207,-0.00585905,-0.01435363,0.00601809,-0.00560032,-0.00768618,-0.00653935,-0.00802222,-0.00415950,0.00770992,-0.00558475,-0.00519971,0.01121769,-0.00123272,0.01171784,-0.00132652,-0.00408513,0.00944996,-0.00260340,-0.00280510,0.00373872,-0.01262676,0.00323463,-0.01799750,0.01091943,0.03334942,-0.00680678,0.00650810,0.00718718,0.00571147,-0.01280439,-0.02735106,0.00017616,-0.05243484,0, 00:00:04.3
45,-0.00386457,-0.00548009,-0.00238056,-0.00359214,-0.00452457,-0.00507936,-0.00948638,-0.00623869,-0.00590499,-0.00255591,-0.01941663,-0.01422030,-0.00974602,-0.00602763,-0.00292583,-0.00601406,-0.00227139,-0.00076830,-0.01020215,-0.00426390,-0.01388104,0.00893602,-0.00380781,-0.00660803,-0.00453998,-0.00606100,-0.00209496,0.00934962,-0.00364362,-0.00296810,0.00867803,0.00031823,0.00945013,-0.00105741,-0.00103537,0.01295263,0.00048003,-0.00015274,0.00536109,-0.01053714,0.00190162,-0.02153161,0.01256090,0.02852984,-0.00406011,0.00975582,0.01185342,0.01430511,-0.00906510,-0.02554034,0.00114956,-0.04980593,0, 00:00:04.4
46,-0.00383058,-0.00528667,-0.00236513,-0.00402366,-0.00476020,-0.00522118,-0.01017400,-0.00652571,-0.00455146,-0.00177363,-0.01859701,-0.01233336,-0.00938485,-0.00581998,-0.00298543,-0.00593995,-0.00228573,-0.00153109,-0.00991652,-0.00265590,-0.01667144,0.00985886,-0.00293739,-0.00628321,-0.00444546,-0.00559820,-0.00150527,0.00874261,-0.00248748,-0.00187009,0.00388163,0.00036894,0.00501995,-0.00177736,0.00091283,0.01372916,0.00229176,0.00103058,0.00552767,-0.01012147,-0.00130691,-0.02674342,0.01085573,0.02004154,-0.00178227,0.01132774,0.01514532,0.02242461,-0.00669194,-0.02641803,-0.00152943,-0.04834953,0, 00:00:04.5
47,-0.00386677,-0.00516155,-0.00256700,-0.00468718,-0.00529177,-0.00554251,-0.01073271,-0.00682701,-0.00316330,-0.00098668,-0.01773379,-0.01066133,-0.00900663,-0.00581603,-0.00323707,-0.00632881,-0.00287915,-0.00243820,-0.00949497,-0.00081177,-0.01768114,0.01118745,-0.00176900,-0.00589109,-0.00467309,-0.00559439,-0.00173705,0.00707610,-0.00160557,-0.00121317,0.00004639,0.00097136,0.00386847,-0.00223953,0.00262411,0.01389382,0.00393303,0.00133209,0.00498169,-0.00954761,-0.00246383,-0.02798347,0.01083733,0.01427063,0.00032223,0.01228506,0.01751936,0.02933156,-0.00499116,-0.02700651,-0.00323714,-0.04632780,0, 00:00:04.6
48,-0.00358408,-0.00495121,-0.00283571,-0.00499045,-0.00547681,-0.00557989,-0.01056010,-0.00647858,-0.00156219,0.00005928,-0.01641294,-0.00874014,-0.00839147,-0.00565561,-0.00342597,-0.00640732,-0.00343874,-0.00304586,-0.00854331,0.00104157,-0.01831931,0.01292161,-0.00047272,-0.00500242,-0.00468084,-0.00555365,-0.00196101,0.00494772,-0.00084562,-0.00046930,-0.00416261,0.00188769,0.00258069,-0.00262116,0.00428790,0.01375891,0.00484554,0.00095323,0.00387134,-0.00840398,-0.00356163,-0.02928061,0.01164881,0.00914979,0.00264662,0.01298513,0.01934058,0.03650098,-0.00342545,-0.02672234,-0.00460445,-0.04347137,0, 00:00:04.7
49,-0.00212932,-0.00375539,-0.00148062,-0.00356546,-0.00377070,-0.00428785,-0.00781573,-0.00378555,0.00065872,0.00256631,-0.01401545,-0.00538605,-0.00704876,-0.00371448,-0.00191662,-0.00437452,-0.00296076,-0.00110319,-0.00628786,0.00312877,-0.01653463,0.01569122,0.00150386,-0.00302820,-0.00259888,-0.00380412,-0.00096499,0.00418077,0.00106119,0.00130655,-0.00729044,0.00402736,0.00191101,-0.00253959,0.00704548,0.01585196,0.00654338,0.00123146,0.00360138,-0.00403205,-0.00396827,-0.02875880,0.01386761,0.00501694,0.00592381,0.01521223,0.02210559,0.04457264,-0.00055216,-0.02204375,-0.00176035,-0.03814995,0, 00:00:04.8
50,-0.00031476,-0.00213921,0.00052679,-0.00137749,-0.00110530,-0.00226159,-0.00444858,-0.00054420,0.00310946,0.00580997,-0.01142010,-0.00160894,-0.00536491,-0.00107998,0.00083168,-0.00106834,-0.00128306,0.00182424,-0.00368810,0.00554777,-0.01312516,0.01885322,0.00426866,-0.00072483,0.00065448,-0.00095832,0.00133769,0.00505803,0.00367025,0.00360965,-0.00895922,0.00652255,0.00236084,-0.00193399,0.01056062,0.01928462,0.00935858,0.00297653,0.00450687,0.00102607,-0.00309400,-0.02617938,0.01656648,0.00175382,0.00957068,0.01844347,0.02580087,0.05258898,0.00362470,-0.01591015,0.00253148,-0.03203351,0, 00:00:04.9
51,0.00124543,-0.00062217,0.00253769,0.00048842,0.00117184,-0.00045174,-0.00159098,0.00216624,0.00557514,0.00890378,-0.00910077,0.00191704,-0.00370017,0.00139433,0.00359504,0.00204724,0.00053795,0.00454080,-0.00139235,0.00832338,-0.00951735,0.02203954,0.00709889,0.00143258,0.00375994,0.00208665,0.00360053,0.00640682,0.00639229,0.00574831,-0.00986143,0.00902486,0.00372263,-0.00116797,0.01414852,0.02265637,0.01291910,0.00544750,0.00596087,0.00546909,-0.00149896,-0.02254893,0.01888686,-0.00079803,0.01299000,0.02183174,0.02973307,0.05979069,0.00818942,-0.01038196,0.00633861,-0.02605971,0, 00:00:05.0
52,0.00177401,0.00006132,0.00327952,0.00105698,0.00210428,0.00034386,-0.00081355,0.00294979,0.00775263,0.01092404,-0.00742834,0.00430766,-0.00248254,0.00258669,0.00455428,0.00368906,0.00150188,0.00517433,-0.00000001,0.01100277,-0.00827924,0.02448827,0.00937202,0.00290442,0.00528755,0.00387412,0.00506416,0.00665341,0.00825051,0.00705435,-0.01121091,0.01094359,0.00485239,-0.00065515,0.01690781,0.02424863,0.01540260,0.00750122,0.00676716,0.00715658,-0.00012895,-0.01980011,0.02053393,-0.00273699,0.01556169,0.02417340,0.03302278,0.06646285,0.01196498,-0.00836284,0.00659266,-0.02133478,0, 00:00:05.1
53,0.00170877,0.00023170,0.00342819,0.00122236,0.00212742,0.00032124,-0.00076882,0.00307018,0.00942638,0.01238447,-0.00625667,0.00582420,-0.00168806,0.00304399,0.00483589,0.00398818,0.00131414,0.00491828,0.00075356,0.01320784,-0.00750179,0.02625624,0.01098659,0.00388170,0.00562515,0.00464883,0.00559462,0.00542734,0.00941200,0.00767082,-0.01246796,0.01221589,0.00552203,-0.00047513,0.01902362,0.02429016,0.01692370,0.00847372,0.00661873,0.00785818,0.00121250,-0.01724862,0.02187844,-0.00431957,0.01788251,0.02532551,0.03526902,0.07262290,0.01465182,-0.00780731,0.00618464,-0.01726224,0, 00:00:05.2
54,0.00155124,0.00023224,0.00340575,0.00101083,0.00189455,0.00013907,-0.00094166,0.00300144,0.01057871,0.01361192,-0.00530549,0.00699668,-0.00103153,0.00332333,0.00478290,0.00402677,0.00080943,0.00431324,0.00116011,0.01496465,-0.00656834,0.02763189,0.01253056,0.00462834,0.00569674,0.00507671,0.00597577,0.00378808,0.01028747,0.00789487,-0.01329200,0.01339815,0.00610034,-0.00018924,0.02089761,0.02400911,0.01829448,0.00893855,0.00621235,0.00789733,0.00250074,-0.01458212,0.02308571,-0.00526984,0.01950138,0.02616438,0.03692360,0.07816235,0.01690667,-0.00779475,0.00573802,-0.01328269,0, 00:00:05.3
55,0.00170663,0.00047238,0.00401146,0.00144260,0.00179819,0.00012709,-0.00028448,0.00380805,0.01154245,0.01525011,-0.00437275,0.00837698,-0.00027954,0.00417387,0.00519634,0.00421719,0.00037284,0.00468380,0.00182758,0.01612302,-0.00423905,0.02925936,0.01415164,0.00549757,0.00617720,0.00588028,0.00631798,0.00255541,0.01146121,0.00853968,-0.01296255,0.01458927,0.00716278,0.00053901,0.02295050,0.02441541,0.02001316,0.00951840,0.00611156,0.00933450,0.00428865,-0.01069069,0.02491727,-0.00525926,0.02042457,0.02751036,0.03855630,0.08353575,0.01902755,-0.00627934,0.00768245,-0.00871728,0, 00:00:05.4
56,0.00299143,0.00178110,0.00605993,0.00333599,0.00316657,0.00123397,0.00205862,0.00622088,0.01291512,0.01796605,-0.00274484,0.01107539,0.00102141,0.00650490,0.00702398,0.00630314,0.00111122,0.00700310,0.00342315,0.01753166,0.00049311,0.03181577,0.01636139,0.00701441,0.00841796,0.00824685,0.00787152,0.00317003,0.01380264,0.01026087,-0.01122652,0.01667927,0.00935002,0.00181306,0.02611163,0.02728292,0.02272268,0.01133539,0.00736747,0.01286033,0.00691303,-0.00472123,0.02822833,-0.00416053,0.02188865,0.03055996,0.04133793,0.08876375,0.02224165,-0.00181504,0.01247793,-0.00266071,0, 00:00:05.5
57,0.00441838,0.00321325,0.00805951,0.00538350,0.00467518,0.00254038,0.00423485,0.00852851,0.01446168,0.02069986,-0.00094815,0.01382106,0.00245358,0.00889570,0.00914067,0.00865076,0.00246857,0.00934962,0.00510650,0.01918810,0.00513231,0.03455001,0.01853132,0.00865548,0.01083478,0.01093514,0.00995951,0.00460050,0.01640613,0.01208903,-0.00921369,0.01904337,0.01184123,0.00325707,0.02948788,0.03048062,0.02638019,0.01384406,0.00923471,0.01616712,0.00951520,0.00120772,0.03166887,-0.00275242,0.02376190,0.03393063,0.04439706,0.09293603,0.02606028,0.00263795,0.01690910,0.00319021,0, 00:00:05.6
58,0.00541559,0.00419708,0.00942344,0.00670796,0.00559041,0.00344843,0.00545336,0.00983739,0.01588113,0.02288483,0.00067549,0.01608897,0.00375708,0.01064916,0.01031866,0.01044671,0.00358779,0.01069133,0.00638897,0.02081196,0.00868918,0.03688161,0.02071430,0.01011481,0.01259468,0.01309440,0.01179738,0.00562850,0.01863789,0.01344097,-0.00755264,0.02113201,0.01390960,0.00455972,0.03247270,0.03290778,0.02997837,0.01629090,0.01087547,0.01789603,0.01151029,0.00600290,0.03451660,-0.00161405,0.02547890,0.03682402,0.04710511,0.09614675,0.02957810,0.00526364,0.01920216,0.00840564,0, 00:00:05.7
59,0.00510234,0.00392337,0.00915475,0.00643793,0.00501276,0.00293411,0.00428808,0.00904201,0.01667891,0.02357643,0.00145122,0.01667905,0.00439279,0.01060739,0.00999455,0.00995871,0.00320200,0.00960261,0.00638647,0.02201184,0.00935490,0.03821871,0.02187139,0.01065205,0.01216507,0.01352192,0.01221884,0.00449548,0.01944179,0.01346496,-0.00717217,0.02201565,0.01473462,0.00517544,0.03415675,0.03254197,0.03159110,0.01726074,0.01093171,0.01662619,0.01228462,0.00895854,0.03579650,-0.00114847,0.02627099,0.03784294,0.04832368,0.09868292,0.03144954,0.00386209,0.01773250,0.01195391,0, 00:00:05.8
60,0.00432915,0.00320780,0.00824085,0.00547723,0.00355432,0.00180609,0.00274602,0.00777492,0.01698767,0.02378397,0.00171812,0.01650396,0.00464002,0.00990158,0.00885003,0.00851701,0.00171946,0.00779346,0.00594961,0.02241354,0.00899614,0.03881009,0.02243470,0.01063962,0.01070392,0.01300228,0.01146581,0.00162745,0.01941396,0.01316782,-0.00719930,0.02228762,0.01472595,0.00535038,0.03506744,0.03078249,0.03199041,0.01672456,0.00983516,0.01467366,0.01223141,0.01167356,0.03611119,-0.00109709,0.02666522,0.03766327,0.04824615,0.10022096,0.03197813,0.00134573,0.01538494,0.01475848,0, 00:00:05.9
61,0.00354536,0.00241253,0.00722127,0.00433453,0.00215269,0.00062130,0.00144681,0.00661473,0.01702681,0.02367833,0.00201957,0.01623613,0.00479681,0.00904963,0.00811430,0.00689250,0.00001180,0.00581934,0.00555559,0.02243214,0.00837426,0.03926481,0.02288216,0.01062855,0.00908958,0.01199395,0.01028870,-0.00173245,0.01895270,0.01256016,-0.00684188,0.02236249,0.01413154,0.00532039,0.03560828,0.02854156,0.03143093,0.01544967,0.00816922,0.01262316,0.01149198,0.01450785,0.03628071,-0.00090101,0.02692953,0.03682685,0.04737832,0.10135271,0.03186043,-0.00118077,0.01255125,0.01755006,0, 00:00:06.0
62,0.00384067,0.00259828,0.00739200,0.00466180,0.00200286,0.00042018,0.00228680,0.00744670,0.01729145,0.02450265,0.00320789,0.01709833,0.00538628,0.00957102,0.00794791,0.00657661,-0.00095862,0.00583654,0.00624086,0.02262819,0.01009459,0.04072173,0.02369021,0.01142700,0.00896094,0.01200500,0.00967837,-0.00433681,0.01908529,0.01273178,-0.00503173,0.02315154,0.01364045,0.00559785,0.03677898,0.02785776,0.03164825,0.01423565,0.00687152,0.01320835,0.01167666,0.01909301,0.03765516,0.00014237,0.02784436,0.03683142,0.04689647,0.10267244,0.03208507,-0.00028085,0.01368739,0.02230695,0, 00:00:06.1
63,0.00482228,0.00337786,0.00837246,0.00581404,0.00309120,0.00129778,0.00433849,0.00927002,0.01780264,0.02578923,0.00494258,0.01880555,0.00639450,0.01102511,0.00905771,0.00800108,-0.00066328,0.00715290,0.00762629,0.02298028,0.01350015,0.04272585,0.02494449,0.01280011,0.01025650,0.01329094,0.01009579,-0.00540995,0.01989940,0.01361633,-0.00286128,0.02457196,0.01392715,0.00639605,0.03866634,0.02892270,0.03213123,0.01412555,0.00656814,0.01489816,0.01240213,0.02404841,0.03946475,0.00148997,0.02911825,0.03790954,0.04736048,0.10478131,0.03349088,0.00248390,0.01611225,0.02797390,0, 00:00:06.2
64,0.00579691,0.00414330,0.00944626,0.00723043,0.00427311,0.00230976,0.00652864,0.01119557,0.01845273,0.02686779,0.00675731,0.02063671,0.00749143,0.01259859,0.01017255,0.00970188,0.00000359,0.00870001,0.00899624,0.02339550,0.01695731,0.04474777,0.02651766,0.01430283,0.01176585,0.01477537,0.01086997,-0.00586342,0.02085359,0.01460296,-0.00104098,0.02606834,0.01462779,0.00732958,0.04064794,0.03019653,0.03355556,0.01457153,0.00673656,0.01661395,0.01324671,0.02851174,0.04133459,0.00273816,0.03046238,0.03915727,0.04818852,0.10747612,0.03557078,0.00556913,0.01853920,0.03337937,0, 00:00:06.3
65,0.00624792,0.00451163,0.00976241,0.00770825,0.00503079,0.00290876,0.00736142,0.01187899,0.01908738,0.02733028,0.00832784,0.02188759,0.00834104,0.01339996,0.01101407,0.01064167,0.00043774,0.00889723,0.00989105,0.02395340,0.01865027,0.04634655,0.02769450,0.01537915,0.01261264,0.01557392,0.01144092,-0.00668379,0.02123472,0.01496509,-0.00025978,0.02728491,0.01502318,0.00782940,0.04214113,0.03059298,0.03462135,0.01498908,0.00659803,0.01639679,0.01360536,0.03150890,0.04249726,0.00341153,0.03157574,0.03970774,0.04874625,0.10992095,0.03761853,0.00642829,0.01839875,0.03760495,0, 00:00:06.4
66,0.00548536,0.00380556,0.00874025,0.00686887,0.00436553,0.00223459,0.00639189,0.01084502,0.01920980,0.02666955,0.00912496,0.02173644,0.00856779,0.01270215,0.00990226,0.00977708,-0.00057032,0.00706340,0.00977141,0.02430043,0.01831069,0.04693094,0.02783313,0.01554545,0.01157493,0.01513982,0.01087330,-0.00946628,0.02040862,0.01436929,-0.00078396,0.02743903,0.01440760,0.00763228,0.04233602,0.02843003,0.03437311,0.01409558,0.00502951,0.01409411,0.01309327,0.03261734,0.04244390,0.00287743,0.03206686,0.03842837,0.04785341,0.11145437,0.03822915,0.00439050,0.01575128,0.04017850,0, 00:00:06.5
67,0.00456871,0.00291020,0.00761079,0.00564681,0.00312008,0.00119255,0.00534803,0.00969946,0.01898142,0.02573480,0.00953425,0.02126565,0.00847796,0.01175418,0.00883168,0.00838757,-0.00225209,0.00495293,0.00938044,0.02412305,0.01782028,0.04710370,0.02772501,0.01525212,0.01007752,0.01411525,0.00969606,-0.01311239,0.01910409,0.01371018,-0.00156992,0.02695313,0.01353277,0.00696775,0.04204585,0.02564690,0.03321658,0.01242385,0.00276966,0.01197101,0.01226750,0.03321996,0.04194909,0.00168493,0.03255039,0.03635142,0.04633436,0.11258487,0.03813398,0.00231606,0.01334698,0.04222029,0, 00:00:06.6
68,0.00411996,0.00253127,0.00750124,0.00506520,0.00209708,0.00051527,0.00530427,0.00955731,0.01849622,0.02531201,0.00985446,0.02138016,0.00839688,0.01163926,0.00832339,0.00731639,-0.00369134,0.00401574,0.00938340,0.02349638,0.01908410,0.04741896,0.02790851,0.01495086,0.00930532,0.01346516,0.00860937,-0.01610746,0.01832154,0.01372686,-0.00162736,0.02670233,0.01333408,0.00632507,0.04199095,0.02398099,0.03255976,0.01117024,0.00113873,0.01170577,0.01181538,0.03512691,0.04218480,0.00023052,0.03308278,0.03467999,0.04503936,0.11261828,0.03800436,0.00228078,0.01363677,0.04489124,0, 00:00:06.7
69,0.00491869,0.00346042,0.00899676,0.00635903,0.00267476,0.00105237,0.00703284,0.01116738,0.01835832,0.02593470,0.01073924,0.02298052,0.00885080,0.01318600,0.00929363,0.00812584,-0.00365108,0.00523721,0.01035036,0.02301419,0.02293728,0.04874814,0.02881453,0.01524745,0.01047941,0.01444320,0.00873850,-0.01690509,0.01896912,0.01477251,-0.00025947,0.02745223,0.01474236,0.00623628,0.04314047,0.02517297,0.03354278,0.01145695,0.00127448,0.01397523,0.01230383,0.03971765,0.04415556,-0.00082968,0.03413940,0.03472828,0.04514101,0.11190715,0.03890442,0.00578416,0.01746582,0.04920194,0, 00:00:06.8
70,0.00597973,0.00477218,0.01077241,0.00800110,0.00372359,0.00216050,0.00899073,0.01296419,0.01863591,0.02679591,0.01207405,0.02511512,0.00969178,0.01510335,0.01061419,0.00964690,-0.00258958,0.00687693,0.01166236,0.02295577,0.02705234,0.05065987,0.03014245,0.01594496,0.01220792,0.01610758,0.00949248,-0.01638912,0.02022155,0.01607411,0.00149004,0.02865887,0.01680969,0.00649337,0.04473950,0.02709319,0.03476639,0.01265503,0.00229112,0.01657796,0.01328310,0.04495320,0.04669750,-0.00156940,0.03568504,0.03541526,0.04602256,0.11187626,0.04065562,0.00986450,0.02158608,0.05381697,0, 00:00:06.9
71,0.00724056,0.00617281,0.01269775,0.00970952,0.00502847,0.00344038,0.01113918,0.01481503,0.01923607,0.02801337,0.01374697,0.02753405,0.01066744,0.01712083,0.01214457,0.01152020,-0.00140324,0.00871084,0.01315760,0.02333415,0.03135137,0.05297887,0.03185441,0.01691061,0.01413374,0.01796364,0.01055384,-0.01547887,0.02177359,0.01759459,0.00327968,0.03017566,0.01904503,0.00680577,0.04659684,0.02912617,0.03610907,0.01407787,0.00362870,0.01906151,0.01454026,0.04975720,0.04933764,-0.00211223,0.03756390,0.03629244,0.04723667,0.11128199,0.04293476,0.01396670,0.02546133,0.05865834,0, 00:00:07.0
72,0.00760381,0.00674835,0.01334699,0.01026189,0.00539310,0.00386910,0.01139563,0.01491288,0.01964394,0.02824064,0.01504889,0.02904092,0.01139388,0.01786676,0.01281855,0.01216199,-0.00102523,0.00856494,0.01374743,0.02367289,0.03355569,0.05454100,0.03327380,0.01738268,0.01474691,0.01870263,0.01099486,-0.01561803,0.02249729,0.01819923,0.00391184,0.03105812,0.02056836,0.00676900,0.04771565,0.02931240,0.03681064,0.01491161,0.00412567,0.01878327,0.01504143,0.05274795,0.05110515,-0.00315725,0.03872043,0.03606838,0.04762094,0.10899308,0.04471631,0.01481540,0.02570189,0.06220231,0, 00:00:07.1
73,0.00700390,0.00652363,0.01292159,0.00974499,0.00464195,0.00321563,0.01042890,0.01390396,0.01960114,0.02750776,0.01560908,0.02945814,0.01165169,0.01754084,0.01181348,0.01110412,-0.00206450,0.00702616,0.01366254,0.02355795,0.03377835,0.05527775,0.03386598,0.01716141,0.01371435,0.01797555,0.01002614,-0.01783670,0.02225036,0.01796850,0.00360879,0.03120403,0.02088093,0.00619340,0.04781961,0.02737954,0.03653909,0.01424776,0.00317747,0.01736156,0.01469888,0.05447631,0.05177217,-0.00459386,0.03904258,0.03444656,0.04681958,0.10721737,0.04510905,0.01347186,0.02430658,0.06463283,0, 00:00:07.2
74,0.00648895,0.00643310,0.01269649,0.00931407,0.00379219,0.00261938,0.00999390,0.01340538,0.01954555,0.02684106,0.01619374,0.02986006,0.01177781,0.01743285,0.01077537,0.00995577,-0.00327955,0.00588294,0.01395071,0.02315662,0.03457971,0.05606212,0.03449864,0.01693142,0.01271269,0.01710334,0.00886933,-0.02059447,0.02189110,0.01810182,0.00334637,0.03137727,0.02090898,0.00553781,0.04778340,0.02549866,0.03630691,0.01313853,0.00190160,0.01724202,0.01408719,0.05636737,0.05242814,-0.00579953,0.03925924,0.03276654,0.04580422,0.10632087,0.04504455,0.01322072,0.02416682,0.06743250,0, 00:00:07.3
75,0.00729321,0.00743878,0.01395141,0.01043630,0.00425871,0.00320306,0.01192177,0.01498818,0.01996229,0.02738519,0.01758783,0.03165418,0.01241628,0.01900252,0.01129313,0.01061273,-0.00343345,0.00705344,0.01564402,0.02322157,0.03820423,0.05798781,0.03587630,0.01755682,0.01362021,0.01779268,0.00868997,-0.02190270,0.02261896,0.01966993,0.00442501,0.03237834,0.02180287,0.00541065,0.04879609,0.02588206,0.03717934,0.01287397,0.00166906,0.02028723,0.01437096,0.06032123,0.05451712,-0.00632664,0.04047302,0.03251303,0.04582255,0.10607268,0.04590668,0.01708646,0.02799053,0.07207999,0, 00:00:07.4
76,0.00902805,0.00916626,0.01609586,0.01260299,0.00630617,0.00499029,0.01526609,0.01778617,0.02111049,0.02900720,0.02002595,0.03477639,0.01372474,0.02163759,0.01358686,0.01301233,-0.00173590,0.00977871,0.01835494,0.02415558,0.04355649,0.06107351,0.03777583,0.01913671,0.01618321,0.01997966,0.00967792,-0.02123478,0.02435836,0.02212919,0.00653475,0.03438754,0.02349248,0.00584259,0.05087129,0.02809534,0.03879503,0.01413431,0.00275722,0.02474416,0.01537174,0.06553387,0.05747476,-0.00627879,0.04267313,0.03372629,0.04722534,0.10722622,0.04859059,0.02341854,0.03345655,0.07758796,0, 00:00:07.5
77,0.01095184,0.01109830,0.01846136,0.01526329,0.00867382,0.00711736,0.01903919,0.02095737,0.02274420,0.03102832,0.02290138,0.03819251,0.01533497,0.02458199,0.01646306,0.01595315,0.00034632,0.01299578,0.02140641,0.02578067,0.04912060,0.06440347,0.04029632,0.02112523,0.01919712,0.02238650,0.01120935,-0.01990083,0.02643831,0.02502913,0.00914483,0.03682733,0.02541729,0.00650603,0.05341043,0.03067432,0.04094715,0.01611585,0.00439118,0.02952917,0.01678932,0.07108552,0.06096866,-0.00595585,0.04536654,0.03540450,0.04938336,0.10983954,0.05246253,0.03068237,0.03932304,0.08364203,0, 00:00:07.6
78,0.01293576,0.01308420,0.02102760,0.01812627,0.01131247,0.00948477,0.02283326,0.02413438,0.02472577,0.03321407,0.02602265,0.04180410,0.01710073,0.02774834,0.01918786,0.01937440,0.00248779,0.01639460,0.02456662,0.02776653,0.05483747,0.06790930,0.04322430,0.02330742,0.02255344,0.02539209,0.01324449,-0.01811998,0.02879428,0.02809482,0.01187486,0.03974773,0.02768444,0.00742788,0.05629690,0.03359758,0.04391678,0.01876461,0.00655009,0.03413841,0.01844025,0.07712721,0.06441478,-0.00570976,0.04824574,0.03756098,0.05219935,0.11334945,0.05722455,0.03791251,0.04500421,0.08994164,0, 00:00:07.7
79,0.01375989,0.01408297,0.02214751,0.01937287,0.01286116,0.01082470,0.02436686,0.02515114,0.02658157,0.03430783,0.02842546,0.04412172,0.01850606,0.02935564,0.02061022,0.02134543,0.00399823,0.01752824,0.02667785,0.03005715,0.05802115,0.07046374,0.04565262,0.02474223,0.02419298,0.02732033,0.01458988,-0.01745009,0.03021770,0.03019579,0.01328025,0.04185831,0.02937615,0.00795990,0.05845045,0.03440915,0.04658953,0.02107426,0.00799113,0.03567263,0.01954493,0.08165383,0.06656867,-0.00621480,0.05027350,0.03860373,0.05433251,0.11733135,0.06150524,0.04139578,0.04680854,0.09484333,0, 00:00:07.8
80,0.01389043,0.01449323,0.02254686,0.01991957,0.01334390,0.01117953,0.02496175,0.02538714,0.02824846,0.03497481,0.03018337,0.04554312,0.01954194,0.03011048,0.02128672,0.02184944,0.00427764,0.01759888,0.02817292,0.03222175,0.06029480,0.07222347,0.04749504,0.02561363,0.02440927,0.02802052,0.01478378,-0.01823279,0.03094960,0.03184783,0.01380138,0.04343042,0.03063611,0.00818078,0.05982107,0.03365343,0.04846697,0.02250428,0.00851398,0.03652188,0.02068284,0.08550587,0.06798202,-0.00728694,0.05163681,0.03861801,0.05571723,0.12202713,0.06483152,0.04347153,0.04820106,0.09888616,0, 00:00:07.9
81,0.01450142,0.01535632,0.02367960,0.02109922,0.01386600,0.01177386,0.02645209,0.02655025,0.03002159,0.03619957,0.03192144,0.04742736,0.02065000,0.03155154,0.02235896,0.02259436,0.00449839,0.01870449,0.03024940,0.03455056,0.06429721,0.07436284,0.04949816,0.02662923,0.02521672,0.02909972,0.01520031,-0.01883140,0.03215662,0.03399346,0.01460699,0.04513573,0.03224128,0.00844671,0.06148885,0.03367991,0.05021697,0.02414813,0.00941537,0.03900079,0.02224646,0.09036651,0.07015553,-0.00847976,0.05315238,0.03912881,0.05733162,0.12705979,0.06811067,0.04729745,0.05202135,0.10345339,0, 00:00:08.0
82,0.01615400,0.01731713,0.02627536,0.02389886,0.01572358,0.01352689,0.02965494,0.02921125,0.03225503,0.03890149,0.03442712,0.05059126,0.02216939,0.03451046,0.02467302,0.02512944,0.00603237,0.02171433,0.03324714,0.03715181,0.07034052,0.07756235,0.05199624,0.02828775,0.02778909,0.03163962,0.01662300,-0.01755035,0.03470159,0.03718622,0.01679389,0.04770964,0.03512636,0.00909387,0.06431565,0.03595737,0.05327443,0.02711191,0.01177187,0.04362684,0.02441773,0.09722703,0.07364798,-0.00932468,0.05572045,0.04104254,0.06010709,0.13208270,0.07274456,0.05417056,0.05865790,0.10953502,0, 00:00:08.1
83,0.01811495,0.01956238,0.02910084,0.02696315,0.01815297,0.01568301,0.03298726,0.03208780,0.03489106,0.04201799,0.03740156,0.05427197,0.02401844,0.03778141,0.02734732,0.02817755,0.00823079,0.02507299,0.03655818,0.04006179,0.07660216,0.08132766,0.05509874,0.03024933,0.03088512,0.03483163,0.01881787,-0.01517012,0.03777769,0.04078845,0.01975434,0.05062502,0.03836069,0.00982343,0.06761624,0.03884805,0.05735793,0.03104343,0.01491326,0.04846205,0.02672542,0.10436527,0.07755394,-0.01010065,0.05889062,0.04350076,0.06352644,0.13684976,0.07827870,0.06171804,0.06528938,0.11578937,0, 00:00:08.2
84,0.02009501,0.02182508,0.03211536,0.03026446,0.02048984,0.01790760,0.03638634,0.03508152,0.03769200,0.04547137,0.04043692,0.05808682,0.02604392,0.04127100,0.03017651,0.03154675,0.01050535,0.02868119,0.03988952,0.04318660,0.08313804,0.08541329,0.05841150,0.03237954,0.03404636,0.03808775,0.02102791,-0.01252428,0.04119656,0.04459497,0.02316515,0.05343936,0.04172527,0.01077911,0.07104234,0.04190179,0.06192454,0.03521420,0.01846224,0.05346863,0.02916113,0.11216482,0.08172471,-0.01047131,0.06187348,0.04628066,0.06722552,0.14132814,0.08422358,0.06943862,0.07202037,0.12249725,0, 00:00:08.3
85,0.02159530,0.02361184,0.03438871,0.03279231,0.02242885,0.01972373,0.03844475,0.03681190,0.04034859,0.04827520,0.04321882,0.06128799,0.02787011,0.04399258,0.03218090,0.03414401,0.01256482,0.03098385,0.04255795,0.04620259,0.08821768,0.08892313,0.06151017,0.03416109,0.03643239,0.04096203,0.02293122,-0.01031146,0.04419845,0.04757911,0.02594673,0.05593878,0.04476709,0.01162134,0.07410640,0.04404059,0.06632933,0.03919253,0.02173641,0.05629085,0.03091251,0.11916726,0.08498273,-0.01082780,0.06424388,0.04869479,0.07047049,0.14426561,0.09006102,0.07470416,0.07579862,0.12859273,0, 00:00:08.4
86,0.02170473,0.02407443,0.03503770,0.03357526,0.02265838,0.02002114,0.03819738,0.03642596,0.04232366,0.04959533,0.04494574,0.06270377,0.02901233,0.04488557,0.03251128,0.03451625,0.01292549,0.03094364,0.04380513,0.04850503,0.09039872,0.09100262,0.06357423,0.03490750,0.03642965,0.04204657,0.02335248,-0.01024635,0.04590010,0.04919282,0.02737603,0.05726692,0.04662468,0.01192513,0.07576646,0.04331308,0.06915496,0.04167559,0.02359995,0.05605476,0.03152846,0.12470105,0.08657248,-0.01199434,0.06509168,0.04928922,0.07187502,0.14480811,0.09425163,0.07595473,0.07571660,0.13308804,0, 00:00:08.5
87,0.02140103,0.02422429,0.03533856,0.03395421,0.02218483,0.01961293,0.03749970,0.03566265,0.04382873,0.05056041,0.04617296,0.06346050,0.02972293,0.04538398,0.03194056,0.03388873,0.01221141,0.03023816,0.04448996,0.04992075,0.09223133,0.09244528,0.06493193,0.03523623,0.03560024,0.04213021,0.02279836,-0.01147158,0.04700845,0.05038992,0.02850897,0.05793514,0.04805051,0.01186923,0.07688275,0.04167878,0.07121523,0.04285778,0.02460827,0.05528349,0.03159877,0.13010962,0.08777419,-0.01334269,0.06528246,0.04909567,0.07222810,0.14424722,0.09727141,0.07618548,0.07521082,0.13694990,0, 00:00:08.6
88,0.02158979,0.02476923,0.03633796,0.03485891,0.02179310,0.01955052,0.03771061,0.03584898,0.04532945,0.05195762,0.04742421,0.06461781,0.03048114,0.04655567,0.03181095,0.03369077,0.01120630,0.03040933,0.04509528,0.05080376,0.09558600,0.09424192,0.06637556,0.03565289,0.03529510,0.04250996,0.02230668,-0.01241644,0.04850005,0.05177859,0.03043810,0.05876214,0.04928411,0.01177986,0.07817934,0.04070942,0.07298248,0.04357506,0.02551991,0.05592062,0.03188943,0.13650665,0.08921158,-0.01447762,0.06573611,0.04913725,0.07236775,0.14280422,0.09999809,0.07808372,0.07685732,0.14157167,0, 00:00:08.7
89,0.02295266,0.02641684,0.03868637,0.03723048,0.02293091,0.02087536,0.03959727,0.03756191,0.04727488,0.05442351,0.04949455,0.06692702,0.03166493,0.04925005,0.03330600,0.03536054,0.01148256,0.03243268,0.04610657,0.05148459,0.10148479,0.09682397,0.06837238,0.03679164,0.03672273,0.04444546,0.02311410,-0.01158262,0.05106588,0.05374733,0.03372835,0.06029579,0.05111457,0.01201611,0.08032054,0.04186048,0.07565959,0.04491163,0.02738156,0.05839532,0.03266883,0.14469178,0.09152755,-0.01528884,0.06704430,0.05042177,0.07338656,0.14187579,0.10383596,0.08276273,0.08087464,0.14760436,0, 00:00:08.8
90,0.02436791,0.02808333,0.04103990,0.03985607,0.02445856,0.02252887,0.04164404,0.03931189,0.04931147,0.05685028,0.05169772,0.06928776,0.03301943,0.05199805,0.03502993,0.03753169,0.01243840,0.03474544,0.04716200,0.05193293,0.10756989,0.09937540,0.07031480,0.03801382,0.03844072,0.04673968,0.02435798,-0.00987354,0.05382814,0.05565885,0.03731664,0.06202956,0.05300609,0.01233680,0.08260831,0.04331206,0.07886722,0.04681848,0.02969348,0.06065471,0.03328639,0.15327129,0.09365986,-0.01604543,0.06841867,0.05190742,0.07465392,0.14109305,0.10829769,0.08747988,0.08440477,0.15374845,0, 00:00:08.9
91,0.02595766,0.02977539,0.04347176,0.04238556,0.02634506,0.02421318,0.04391938,0.04113035,0.05146994,0.05952130,0.05399484,0.07170128,0.03439184,0.05481171,0.03661178,0.03969795,0.01350719,0.03724793,0.04834615,0.05240839,0.11326610,0.10219858,0.07237466,0.03936351,0.04018683,0.04904495,0.02561940,-0.00795805,0.05659255,0.05767420,0.04137345,0.06381050,0.05467974,0.01258489,0.08494879,0.04487110,0.08190671,0.04887597,0.03219734,0.06286632,0.03353658,0.16229545,0.09560055,-0.01694436,0.07000221,0.05347121,0.07597826,0.13952395,0.11288795,0.09227969,0.08756867,0.15978001,0, 00:00:09.0
92,0.02641379,0.03047963,0.04428849,0.04346818,0.02712145,0.02493999,0.04427302,0.04102084,0.05330974,0.06086808,0.05590508,0.07276941,0.03534335,0.05606296,0.03662968,0.04048124,0.01400205,0.03756411,0.04887194,0.05294649,0.11698425,0.10403027,0.07426495,0.04028060,0.04032935,0.05004331,0.02610033,-0.00735897,0.05804671,0.05857415,0.04591021,0.06453732,0.05509981,0.01213431,0.08642372,0.04436920,0.08393592,0.05008262,0.03365699,0.06177080,0.03428227,0.17116545,0.09518179,-0.01698040,0.07124344,0.05361631,0.07617072,0.13713519,0.11658727,0.09322003,0.08743124,0.16458942,0, 00:00:09.1
93,0.02594423,0.03008857,0.04381635,0.04330774,0.02650663,0.02451554,0.04374301,0.03979004,0.05452441,0.06106149,0.05738592,0.07242621,0.03579187,0.05602304,0.03545013,0.03973802,0.01290940,0.03640975,0.04880573,0.05341385,0.12058644,0.10490695,0.07512494,0.04083717,0.03876461,0.04964828,0.02516678,-0.00929410,0.05779139,0.05813007,0.05131014,0.06456898,0.05570324,0.01116532,0.08671524,0.04142686,0.08455600,0.04919319,0.03317293,0.05840075,0.03721981,0.18095338,0.09448261,-0.01380089,0.07224096,0.05178440,0.07476617,0.13675265,0.11880895,0.09150697,0.08695392,0.16828680,0, 00:00:09.2
94,0.02571410,0.02976049,0.04332009,0.04321436,0.02581270,0.02412980,0.04383999,0.03908144,0.05516731,0.06137542,0.05908037,0.07194687,0.03616147,0.05602428,0.03533505,0.03897960,0.01152142,0.03536308,0.04928328,0.05377175,0.12548430,0.10597198,0.07565062,0.04157912,0.03721523,0.04919724,0.02408547,-0.01211213,0.05679627,0.05786816,0.05748423,0.06513503,0.05694226,0.01045301,0.08695090,0.03826009,0.08474693,0.04749917,0.03177400,0.05500239,0.04099611,0.19116116,0.09479471,-0.00875895,0.07340903,0.04950593,0.07299607,0.14116780,0.12068225,0.09006710,0.08728535,0.17178153,0, 00:00:09.3
95,0.02638223,0.02988534,0.04376706,0.04437982,0.02638228,0.02481297,0.04638423,0.04063157,0.05503234,0.06324121,0.06162779,0.07226496,0.03709135,0.05715237,0.03685938,0.03958004,0.01098863,0.03651435,0.05140085,0.05393976,0.13419048,0.10772330,0.07709844,0.04313338,0.03720744,0.04985928,0.02378133,-0.01422821,0.05615132,0.05857289,0.06510248,0.06694624,0.05867118,0.01039821,0.08775950,0.03606045,0.08451070,0.04582933,0.03039364,0.05410882,0.04627170,0.20333791,0.09627939,-0.00239255,0.07557785,0.04787546,0.07214344,0.15541595,0.12362535,0.09236513,0.09144757,0.17630403,0, 00:00:09.4
96,0.02781758,0.03065218,0.04557668,0.04688618,0.02858975,0.02680516,0.05059373,0.04366673,0.05470725,0.06579280,0.06461110,0.07345235,0.03838738,0.05963026,0.03910251,0.04241274,0.01196902,0.03944344,0.05407827,0.05351442,0.14490286,0.10996927,0.07867902,0.04507740,0.03915634,0.05232564,0.02533334,-0.01410486,0.05645079,0.06033024,0.07285117,0.06904860,0.06008704,0.01042360,0.08931514,0.03585516,0.08589046,0.04582744,0.03010372,0.05473634,0.05090973,0.21501167,0.09813800,0.00241827,0.07927957,0.04724490,0.07370771,0.18236911,0.12910289,0.09763117,0.09727647,0.18146524,0, 00:00:09.5
97,0.02927895,0.03152672,0.04783806,0.04999133,0.03110087,0.02894068,0.05473094,0.04680892,0.05429634,0.06807747,0.06747172,0.07484303,0.03975327,0.06248239,0.04175930,0.04565537,0.01352869,0.04242848,0.05644977,0.05212647,0.15237050,0.11208717,0.08012585,0.04667895,0.04146541,0.05536077,0.02785690,-0.01291215,0.05726985,0.06222108,0.07849233,0.07071941,0.05951715,0.01007439,0.09090772,0.03627344,0.08769543,0.04737700,0.03058133,0.05548076,0.05190947,0.22225612,0.09874198,0.00379373,0.08346012,0.04664823,0.07642483,0.21266972,0.13616906,0.10316829,0.10192867,0.18590198,0, 00:00:09.6
98,0.03055458,0.03241695,0.05038863,0.05300815,0.03347998,0.03096328,0.05818978,0.04954845,0.05392662,0.07010690,0.06989090,0.07611130,0.04098621,0.06541606,0.04449894,0.04863115,0.01521382,0.04520803,0.05840351,0.05064499,0.15808679,0.11376890,0.08135017,0.04775199,0.04371825,0.05864476,0.03064857,-0.01110460,0.05851942,0.06428614,0.08274023,0.07210081,0.05915984,0.00955588,0.09241991,0.03733272,0.09109721,0.05045597,0.03186508,0.05617284,0.05190610,0.22789933,0.09885150,0.00328038,0.08700895,0.04625687,0.07951555,0.23928374,0.14364560,0.10820726,0.10571697,0.18962529,0, 00:00:09.7
99,0.03061388,0.03251529,0.05146879,0.05453854,0.03399196,0.03160629,0.05891721,0.05000591,0.05325420,0.07078986,0.07119401,0.07600235,0.04155362,0.06672563,0.04553485,0.04949252,0.01583398,0.04541134,0.05901821,0.04892495,0.16089956,0.11441139,0.08194358,0.04748515,0.04389171,0.06050114,0.03244060,-0.01059873,0.05887517,0.06523022,0.08473986,0.07210465,0.05797278,0.00819289,0.09269627,0.03613254,0.09392231,0.05348320,0.03242695,0.05392862,0.05086355,0.23168069,0.09735709,0.00028426,0.09030732,0.04401920,0.08168217,0.26443565,0.14995447,0.10905596,0.10478002,0.19139037,0, 00:00:09.8
100,0.03023509,0.03222140,0.05192687,0.05540184,0.03333046,0.03132384,0.05887305,0.04982204,0.05244567,0.07121015,0.07210497,0.07536563,0.04191798,0.06736246,0.04562020,0.04899869,0.01524821,0.04465487,0.05936574,0.04714904,0.16296376,0.11460925,0.08204049,0.04685776,0.04280286,0.06118266,0.03307384,-0.01168943,0.05864565,0.06561583,0.08596940,0.07160158,0.05622080,0.00635899,0.09214381,0.03346022,0.09572096,0.05553558,0.03193986,0.05105519,0.04924292,0.23480111,0.09497102,-0.00318489,0.09266218,0.04058349,0.08284153,0.28840297,0.15499602,0.10834122,0.10268502,0.19249226,0, 00:00:09.9
101,0.03025711,0.03205514,0.05249111,0.05673524,0.03314803,0.03134793,0.05957447,0.05029093,0.05154647,0.07238749,0.07343962,0.07494467,0.04260796,0.06833810,0.04568556,0.04868925,0.01466753,0.04454924,0.06045666,0.04523032,0.16667533,0.11497822,0.08260386,0.04671210,0.04196704,0.06201742,0.03374505,-0.01297107,0.05849923,0.06643023,0.08945745,0.07135810,0.05454206,0.00489437,0.09160897,0.03089763,0.09725008,0.05714238,0.03118866,0.04925439,0.04846252,0.23988403,0.09311156,-0.00424762,0.09449846,0.03724781,0.08365190,0.31282610,0.15979037,0.10880559,0.10293815,0.19414088,1, 00:00:10.0
102,0.03175305,0.03280176,0.05466393,0.06018774,0.03495624,0.03304501,0.06313176,0.05317536,0.05066457,0.07529042,0.07580425,0.07574721,0.04402924,0.07114749,0.04826837,0.05086021,0.01582878,0.04730751,0.06314762,0.04384259,0.17622371,0.11682434,0.08406692,0.04788069,0.04348809,0.06502221,0.03622187,-0.01210562,0.05947223,0.06852785,0.09654614,0.07268471,0.05501255,0.00455869,0.09235719,0.03093448,0.09951398,0.06004852,0.03157203,0.05042757,0.05041908,0.24890928,0.09371371,-0.00153472,0.09687284,0.03572772,0.08558144,0.34133559,0.16645448,0.11373013,0.10877546,0.19784524,0, 00:00:10.1
103,0.03384632,0.03408199,0.05761984,0.06452791,0.03786277,0.03572201,0.06756645,0.05678144,0.05012758,0.07834036,0.07866631,0.07725972,0.04576218,0.07496545,0.05214202,0.05456499,0.01846714,0.05097441,0.06618369,0.04197473,0.18518561,0.11878262,0.08569226,0.04941112,0.04632110,0.06965970,0.04017461,-0.00909424,0.06145566,0.07139903,0.10204472,0.07467232,0.05511981,0.00433795,0.09397321,0.03263760,0.10315171,0.06495445,0.03325488,0.05255980,0.05073794,0.25511459,0.09428816,-0.00079518,0.09935017,0.03534414,0.08875240,0.37267771,0.17517027,0.12046225,0.11401963,0.20162480,0, 00:00:10.2
104,0.03616717,0.03566336,0.06094385,0.06936416,0.04106717,0.03856481,0.07221349,0.06072811,0.05015169,0.08146957,0.08203167,0.07923614,0.04776869,0.07922158,0.05676379,0.05863268,0.02135190,0.05499953,0.06943041,0.04016716,0.19207321,0.12053914,0.08765962,0.05116392,0.04953313,0.07476863,0.04450365,-0.00560960,0.06396372,0.07460900,0.10627765,0.07619815,0.05461281,0.00400325,0.09581215,0.03452524,0.10740357,0.07113785,0.03526822,0.05555361,0.05000606,0.26101595,0.09280302,-0.00232869,0.10217025,0.03530775,0.09236154,0.40374231,0.18440713,0.12841493,0.11860921,0.20481957,0, 00:00:10.3
105,0.03820013,0.03700808,0.06380348,0.07376740,0.04408244,0.04129359,0.07602915,0.06387848,0.05050444,0.08408716,0.08538035,0.08100626,0.04988649,0.08305196,0.06068419,0.06259762,0.02435715,0.05821945,0.07247187,0.03872697,0.19810832,0.12188321,0.08962731,0.05280035,0.05232988,0.07967553,0.04902816,-0.00232290,0.06627646,0.07753927,0.10941223,0.07749273,0.05375390,0.00330091,0.09737916,0.03568803,0.11182233,0.07766026,0.03715710,0.05708702,0.04899756,0.26674527,0.09024495,-0.00532883,0.10517566,0.03495560,0.09591578,0.43530789,0.19406559,0.13465984,0.12060730,0.20790577,0, 00:00:10.4
106,0.03911375,0.03737733,0.06534225,0.07688276,0.04571437,0.04291923,0.07835854,0.06558255,0.05057837,0.08574586,0.08810890,0.08162618,0.05153170,0.08557606,0.06399073,0.06493825,0.02614832,0.05964907,0.07458457,0.03721719,0.20269693,0.12264597,0.09086084,0.05377556,0.05345363,0.08328055,0.05266477,-0.00075927,0.06755897,0.07943971,0.11111024,0.07804576,0.05165715,0.00207269,0.09789816,0.03445961,0.11578542,0.08312474,0.03784315,0.05640496,0.04757645,0.27046937,0.08671264,-0.00946661,0.10784992,0.03290411,0.09833086,0.46755695,0.20303871,0.13788246,0.11997683,0.21015713,0, 00:00:10.5
107,0.03991886,0.03777353,0.06711400,0.08009839,0.04722143,0.04434524,0.08075140,0.06744754,0.05065884,0.08764017,0.09075513,0.08216531,0.05302009,0.08820287,0.06654299,0.06715240,0.02733869,0.06102832,0.07677561,0.03571320,0.20782107,0.12320098,0.09216755,0.05462681,0.05445027,0.08670187,0.05610340,0.00004886,0.06874218,0.08114784,0.11256065,0.07857464,0.04942644,0.00046575,0.09824636,0.03286203,0.11873789,0.08800007,0.03793670,0.05636992,0.04659740,0.27394000,0.08316592,-0.01405110,0.11071746,0.03045250,0.10067065,0.50270700,0.21167286,0.14153191,0.12001157,0.21230265,0, 00:00:10.6
108,0.04156323,0.03899565,0.06994972,0.08427433,0.04979986,0.04669202,0.08480034,0.07082443,0.05108215,0.09080017,0.09398858,0.08372108,0.05488025,0.09195632,0.06986780,0.07038243,0.02928284,0.06398992,0.07993311,0.03451990,0.21501517,0.12461443,0.09387424,0.05609936,0.05670930,0.09125926,0.06034813,0.00192487,0.07086983,0.08378235,0.11493894,0.07946286,0.04782967,-0.00080928,0.09919251,0.03268545,0.12229259,0.09362660,0.03873036,0.05884655,0.04659326,0.27899644,0.08085609,-0.01809753,0.11409682,0.02887799,0.10358707,0.53789496,0.22112295,0.14821132,0.12274441,0.21534154,0, 00:00:10.7
109,0.04473418,0.04149479,0.07440069,0.09025444,0.05407736,0.05087113,0.09133254,0.07626276,0.05231748,0.09560592,0.09834275,0.08701991,0.05757676,0.09758899,0.07550135,0.07600196,0.03378216,0.06965536,0.08482058,0.03400168,0.22525847,0.12736966,0.09678876,0.05865159,0.06135722,0.09802485,0.06671713,0.00699302,0.07489417,0.08803488,0.11890667,0.08147901,0.04720499,-0.00144839,0.10144579,0.03551030,0.12828301,0.10180482,0.04162321,0.06412429,0.04774687,0.28662315,0.08004095,-0.02171340,0.11870357,0.02910754,0.10796721,0.57334667,0.23300104,0.15865691,0.12848163,0.22043069,0, 00:00:10.8
110,0.04817407,0.04427154,0.07925440,0.09676147,0.05895071,0.05545531,0.09815970,0.08212090,0.05428330,0.10114770,0.10314914,0.09084067,0.06062553,0.10376994,0.08178646,0.08236666,0.03911220,0.07598429,0.09014054,0.03440661,0.23632605,0.13067828,0.10028365,0.06168826,0.06675747,0.10562862,0.07406899,0.01345066,0.07975027,0.09274001,0.12315449,0.08409990,0.04731024,-0.00175868,0.10433510,0.03905247,0.13512766,0.11148635,0.04565103,0.07003992,0.04973936,0.29506359,0.07975131,-0.02528976,0.12365839,0.02997545,0.11332801,0.60944360,0.24619520,0.16996139,0.13498639,0.22646451,0, 00:00:10.9
111,0.05153282,0.04712360,0.08425993,0.10346501,0.06375752,0.05992126,0.10462506,0.08773436,0.05664799,0.10701578,0.10795122,0.09482624,0.06357983,0.11003423,0.08770990,0.08876838,0.04435068,0.08227890,0.09537585,0.03557046,0.24758889,0.13417053,0.10380919,0.06475415,0.07223495,0.11370825,0.08177844,0.02006972,0.08494129,0.09745596,0.12693977,0.08690569,0.04808318,-0.00186918,0.10764541,0.04282910,0.14330766,0.12190833,0.05022682,0.07570303,0.05232978,0.30334142,0.07977346,-0.02892504,0.12840110,0.03121603,0.11936575,0.64564866,0.26000607,0.18103701,0.14150608,0.23233226,0, 00:00:11.0
112,0.05364808,0.04894608,0.08797538,0.10842924,0.06684834,0.06304700,0.10855982,0.09104545,0.05875206,0.11183745,0.11171582,0.09751726,0.06590738,0.11474425,0.09219903,0.09342091,0.04858495,0.08627534,0.09951005,0.03666111,0.25598735,0.13653077,0.10659212,0.06693167,0.07582325,0.12046435,0.08862113,0.02554998,0.08937237,0.10136269,0.12893771,0.08899318,0.04879099,-0.00219650,0.11019008,0.04477751,0.15122709,0.13197322,0.05434719,0.07848617,0.05368653,0.30923185,0.07849484,-0.03324933,0.13164379,0.03148994,0.12478729,0.68007892,0.27307114,0.18814996,0.14361544,0.23578510,0, 00:00:11.1
113,0.05494303,0.05009387,0.09079015,0.11230522,0.06829557,0.06477597,0.11103418,0.09327435,0.06046984,0.11631918,0.11477394,0.09909254,0.06778964,0.11843926,0.09481981,0.09604005,0.05131122,0.08894056,0.10299648,0.03741806,0.26236132,0.13807280,0.10887618,0.06836120,0.07759800,0.12572198,0.09407954,0.02924694,0.09303257,0.10462900,0.13025253,0.09035874,0.04865182,-0.00302140,0.11188541,0.04489464,0.15842517,0.14090256,0.05754271,0.08017790,0.05396571,0.31440195,0.07666203,-0.03748548,0.13363419,0.03072199,0.12908383,0.71155453,0.28440329,0.19302358,0.14427479,0.23811300,0, 00:00:11.2
114,0.05626880,0.05106885,0.09343287,0.11606371,0.06953137,0.06631691,0.11339927,0.09562965,0.06192880,0.12102410,0.11763341,0.10047551,0.06957507,0.12208457,0.09754226,0.09837893,0.05360849,0.09163642,0.10674616,0.03798382,0.26878536,0.13954574,0.11087621,0.06972266,0.07899492,0.13063359,0.09914670,0.03223325,0.09654832,0.10773294,0.13203390,0.09149139,0.04792526,-0.00399771,0.11339527,0.04488757,0.16548459,0.14912477,0.06043559,0.08224329,0.05381683,0.31971157,0.07450517,-0.04140973,0.13533604,0.02989210,0.13288736,0.74063706,0.29451671,0.19776084,0.14539424,0.24066520,0, 00:00:11.3
115,0.05860269,0.05275008,0.09705151,0.12107538,0.07189529,0.06898008,0.11802382,0.09989760,0.06334003,0.12683780,0.12114503,0.10282808,0.07182679,0.12688848,0.10146949,0.10220034,0.05711512,0.09666655,0.11163752,0.03822657,0.27750048,0.14186823,0.11347045,0.07189596,0.08178458,0.13659135,0.10502193,0.03662827,0.10106836,0.11172429,0.13577670,0.09307965,0.04721241,-0.00455088,0.11563257,0.04647083,0.17340931,0.15772565,0.06420281,0.08659305,0.05406664,0.32722938,0.07293138,-0.04457911,0.13768299,0.03023189,0.13718189,0.76975036,0.30498791,0.20560746,0.14976853,0.24502464,0, 00:00:11.4
116,0.06213330,0.05497031,0.10119125,0.12742458,0.07617481,0.07330011,0.12462337,0.10573198,0.06503940,0.13396341,0.12592620,0.10618375,0.07486212,0.13278572,0.10727262,0.10813811,0.06248494,0.10360572,0.11792596,0.03874578,0.28850210,0.14523414,0.11716793,0.07534518,0.08627715,0.14411443,0.11227454,0.04324999,0.10640594,0.11630800,0.14221910,0.09564792,0.04637447,-0.00448084,0.11879168,0.04980402,0.18213010,0.16740431,0.06910469,0.09190328,0.05546371,0.33691201,0.07175643,-0.04575364,0.14060028,0.03189613,0.14217380,0.79916322,0.31699270,0.21538447,0.15616612,0.25087589,0, 00:00:11.5
117,0.06592016,0.05670677,0.10532963,0.13415101,0.08107904,0.07805896,0.13224590,0.11230735,0.06636113,0.14203262,0.13154104,0.10973638,0.07847064,0.13884911,0.11357524,0.11476541,0.06835333,0.11107126,0.12512967,0.03975529,0.30108678,0.14890598,0.12153345,0.07966952,0.09129777,0.15233472,0.12015259,0.04973283,0.11150488,0.12114403,0.14912112,0.09916526,0.04524602,-0.00375654,0.12228460,0.05301572,0.19040121,0.17654262,0.07336731,0.09669607,0.05741734,0.34585989,0.07097162,-0.04551750,0.14396243,0.03406012,0.14660126,0.82890868,0.32981518,0.22574084,0.16228087,0.25735882,0, 00:00:11.6
118,0.06884937,0.05763509,0.10876200,0.14044219,0.08558164,0.08253866,0.13912390,0.11800876,0.06741272,0.14902604,0.13704628,0.11245686,0.08174154,0.14422120,0.11946236,0.12112756,0.07396506,0.11750505,0.13178106,0.04049689,0.31245062,0.15195267,0.12508543,0.08343717,0.09592226,0.16043067,0.12825741,0.05541608,0.11582132,0.12529856,0.15427399,0.10199743,0.04390451,-0.00343808,0.12541200,0.05513401,0.19777866,0.18498479,0.07652130,0.09918999,0.05870495,0.35249841,0.06912175,-0.04686755,0.14825954,0.03551514,0.15057245,0.86094058,0.34302557,0.23436607,0.16510065,0.26282454,0, 00:00:11.7
119,0.07034492,0.05734228,0.11069128,0.14493714,0.08839428,0.08560417,0.14372338,0.12160513,0.06780300,0.15442981,0.14139748,0.11324693,0.08433094,0.14785843,0.12400806,0.12514208,0.07778024,0.12154558,0.13688353,0.04068270,0.32138848,0.15396713,0.12811567,0.08618367,0.09832856,0.16690533,0.13478443,0.05873186,0.11850743,0.12805127,0.15915169,0.10368593,0.04202891,-0.00359635,0.12723470,0.05431794,0.20350899,0.19191404,0.07804642,0.09894656,0.05915723,0.35797346,0.06608638,-0.04728154,0.15235163,0.03466990,0.15280376,0.89147115,0.35484302,0.23933879,0.16488472,0.26621249,0, 00:00:11.8
120,0.07150256,0.05656765,0.11236721,0.14897487,0.09076507,0.08818165,0.14767431,0.12448823,0.06766596,0.15938462,0.14525323,0.11315821,0.08668197,0.15110758,0.12802412,0.12836455,0.08062439,0.12482239,0.14163019,0.04057804,0.33110496,0.15605445,0.13051580,0.08893461,0.10007327,0.17278090,0.14049423,0.06049437,0.12030811,0.13049863,0.16535978,0.10579782,0.04170391,-0.00322815,0.12870707,0.05268024,0.20837280,0.19766736,0.07857177,0.09817056,0.06033520,0.36412808,0.06517214,-0.04341481,0.15589483,0.03293855,0.15389498,0.92108935,0.36563236,0.24354325,0.16531837,0.26902762,0, 00:00:11.9
121,0.07324403,0.05635735,0.11477034,0.15385781,0.09339887,0.09128760,0.15290724,0.12844966,0.06744821,0.16438633,0.14927866,0.11353055,0.08887948,0.15502769,0.13305673,0.13234496,0.08408225,0.12915331,0.14680921,0.03959666,0.34147319,0.15802540,0.13260368,0.09185445,0.10268386,0.17923398,0.14696626,0.06284633,0.12241317,0.13346656,0.17028400,0.10769483,0.03988069,-0.00294769,0.13040747,0.05223698,0.21346466,0.20389980,0.07938430,0.09925911,0.06080419,0.36933845,0.06427512,-0.04193631,0.15908964,0.03189941,0.15511028,0.95263886,0.37632847,0.25012630,0.16729790,0.27250096,0, 00:00:12.0
122,0.07654183,0.05753759,0.11870198,0.16005583,0.09750664,0.09586196,0.16015008,0.13416657,0.06788964,0.17060067,0.15421674,0.11546697,0.09136188,0.16044664,0.13946334,0.13824043,0.08999992,0.13544619,0.15319128,0.03876120,0.35338372,0.16059306,0.13506147,0.09536479,0.10737501,0.18771285,0.15525371,0.06834989,0.12594938,0.13752273,0.17429785,0.10970154,0.03781438,-0.00275225,0.13301280,0.05459594,0.21973424,0.21246138,0.08180251,0.10337584,0.06145382,0.37561223,0.06316116,-0.04304681,0.16259772,0.03250534,0.15771231,0.98534256,0.38838428,0.26120365,0.17103067,0.27647248,0, 00:00:12.1
123,0.08010751,0.05900187,0.12303425,0.16649191,0.10188672,0.10080503,0.16736107,0.14006405,0.06866103,0.17738621,0.15941985,0.11785089,0.09401631,0.16621938,0.14608060,0.14457193,0.09657910,0.14199957,0.15977199,0.03851946,0.36561167,0.16324686,0.13791007,0.09895312,0.11261838,0.19690293,0.16414540,0.07511733,0.13013414,0.14173225,0.17793877,0.11196432,0.03667805,-0.00251633,0.13591602,0.05758670,0.22645427,0.22228737,0.08510091,0.10815752,0.06244859,0.38275242,0.06211685,-0.04493309,0.16602261,0.03353005,0.16094841,1.01866555,0.40134358,0.27324933,0.17435774,0.28031519,0, 00:00:12.2
124,0.08346796,0.06035638,0.12730065,0.17303237,0.10626800,0.10577989,0.17415589,0.14572719,0.06953625,0.18418837,0.16434041,0.12020761,0.09687315,0.17195903,0.15217790,0.15105310,0.10321642,0.14848521,0.16634819,0.03851765,0.37709245,0.16577099,0.14067172,0.10238635,0.11772965,0.20603135,0.17328581,0.08218241,0.13459590,0.14583331,0.18132754,0.11422440,0.03572948,-0.00233747,0.13869080,0.06059600,0.23429748,0.23280270,0.08897264,0.11270535,0.06338206,0.38968784,0.06081564,-0.04714809,0.16895972,0.03467212,0.16446905,1.05226278,0.41470665,0.28456026,0.17707118,0.28407657,0, 00:00:12.3
125,0.08527515,0.06044638,0.12991326,0.17795333,0.10917134,0.10946835,0.17838970,0.14926592,0.06977165,0.18962613,0.16803697,0.12086399,0.09917262,0.17598696,0.15689863,0.15575171,0.10868936,0.15266657,0.17164785,0.03815461,0.38538924,0.16694069,0.14250995,0.10466962,0.12068314,0.21348569,0.18131441,0.08781154,0.13809626,0.14869198,0.18313649,0.11515809,0.03391602,-0.00279910,0.14021420,0.06134308,0.24116281,0.24271107,0.09210025,0.11425355,0.06309577,0.39424899,0.05767480,-0.05023465,0.17026119,0.03439344,0.16684446,1.08341920,0.42695025,0.29160088,0.17569436,0.28585762,0, 00:00:12.4
126,0.08599348,0.05967377,0.13165383,0.18173507,0.11051483,0.11180572,0.18101615,0.15165368,0.06918404,0.19414569,0.17046772,0.12012187,0.10071941,0.17897676,0.15959071,0.15854706,0.11210313,0.15533546,0.17592411,0.03687315,0.39202791,0.16695574,0.14326543,0.10591462,0.12179521,0.21896386,0.18798807,0.09132434,0.14079078,0.15058434,0.18403098,0.11493553,0.03132937,-0.00384956,0.14056215,0.06023059,0.24694346,0.25087172,0.09400281,0.11429089,0.06213656,0.39806983,0.05369311,-0.05401338,0.17019820,0.03273458,0.16783775,1.11214232,0.43724206,0.29595917,0.17271595,0.28660640,0, 00:00:12.5
127,0.08669087,0.05897002,0.13366903,0.18559518,0.11164153,0.11387900,0.18368466,0.15418655,0.06827538,0.19872352,0.17227697,0.11934050,0.10195679,0.18206903,0.16181421,0.16093884,0.11508144,0.15806316,0.18008409,0.03498123,0.39889225,0.16683839,0.14363423,0.10696716,0.12262844,0.22418828,0.19408184,0.09444637,0.14355233,0.15228410,0.18477120,0.11444588,0.02906874,-0.00503211,0.14034788,0.05925943,0.25284776,0.25831902,0.09584362,0.11492731,0.06138702,0.40251368,0.04972438,-0.05775435,0.16930819,0.03105885,0.16845745,1.13898551,0.44629341,0.30028528,0.17067896,0.28724498,0, 00:00:12.6
128,0.08886368,0.05956915,0.13712545,0.19102690,0.11441392,0.11755367,0.18886308,0.15882669,0.06780005,0.20435798,0.17492433,0.12007172,0.10353005,0.18667348,0.16575231,0.16515027,0.12031515,0.16320996,0.18522151,0.03302116,0.40838316,0.16748954,0.14429198,0.10885090,0.12538606,0.23071016,0.20148338,0.10043291,0.14777483,0.15486111,0.18704316,0.11469422,0.02777911,-0.00584965,0.14090171,0.06078079,0.25949457,0.26701465,0.09912459,0.11878091,0.06185734,0.40920824,0.04757020,-0.06131632,0.16898488,0.03082349,0.16992037,1.16553998,0.45600903,0.30938318,0.17261584,0.28901598,0, 00:00:12.7
129,0.09215168,0.06094559,0.14149259,0.19748938,0.11845114,0.12253854,0.19523531,0.16461931,0.06795013,0.21068332,0.17833069,0.12195795,0.10534529,0.19236924,0.17083524,0.17090496,0.12732849,0.16982688,0.19103029,0.03135452,0.41933969,0.16877668,0.14547768,0.11133087,0.12975307,0.23853007,0.21036622,0.10935776,0.15351580,0.15810040,0.19038726,0.11574636,0.02746837,-0.00623750,0.14220421,0.06434070,0.26710895,0.27733165,0.10408209,0.12429944,0.06309190,0.41743159,0.04641592,-0.06565014,0.16927336,0.03183879,0.17236096,1.19197130,0.46706492,0.32114229,0.17586052,0.29108626,0, 00:00:12.8
130,0.09525831,0.06218329,0.14597553,0.20415126,0.12251899,0.12755497,0.20151205,0.17044166,0.06819174,0.21725021,0.18156266,0.12395711,0.10731023,0.19812690,0.17627868,0.17680240,0.13441955,0.17666546,0.19654651,0.02997422,0.43085644,0.17039597,0.14663567,0.11393479,0.13419943,0.24656884,0.21929665,0.11865623,0.15959480,0.16114271,0.19390118,0.11694056,0.02734159,-0.00654140,0.14366938,0.06792121,0.27475274,0.28775218,0.10959390,0.12982056,0.06454017,0.42601734,0.04504343,-0.07035980,0.16973966,0.03307951,0.17484418,1.21682978,0.47831982,0.33303612,0.17875499,0.29297677,0, 00:00:12.9
131,0.09781598,0.06303947,0.14985859,0.21001245,0.12640864,0.13222237,0.20671590,0.17537040,0.06836127,0.22347820,0.18442355,0.12539589,0.10907184,0.20325813,0.18126035,0.18223821,0.14131261,0.18259169,0.20132621,0.02848008,0.44076988,0.17164038,0.14772610,0.11618156,0.13792372,0.25425968,0.22785839,0.12774976,0.16536592,0.16360655,0.19675429,0.11774400,0.02689208,-0.00701770,0.14471796,0.07079552,0.28178495,0.29775074,0.11498738,0.13355510,0.06528699,0.43355981,0.04289104,-0.07522542,0.16982384,0.03396821,0.17700036,1.24030054,0.48931706,0.34285146,0.17904325,0.29418069,0, 00:00:13.0
132,0.09882063,0.06258377,0.15207775,0.21405524,0.12807427,0.13517818,0.20936410,0.17818369,0.06798816,0.22820541,0.18611372,0.12501177,0.11009239,0.20656370,0.18432753,0.18521035,0.14597301,0.18592742,0.20458153,0.02631377,0.44776329,0.17137338,0.14786100,0.11735100,0.13919544,0.25958797,0.23481250,0.13435178,0.16964422,0.16452484,0.19801535,0.11735027,0.02502468,-0.00820278,0.14421633,0.07076573,0.28752390,0.30591932,0.11889046,0.13402177,0.06454735,0.43891150,0.03900318,-0.08064090,0.16841699,0.03314568,0.17758067,1.26317620,0.49841961,0.34798172,0.17541884,0.29367641,0, 00:00:13.1
133,0.09945322,0.06173925,0.15399627,0.21749519,0.12913689,0.13745643,0.21139675,0.18062732,0.06698369,0.23253550,0.18730608,0.12401347,0.11059806,0.20952030,0.18648185,0.18723781,0.14931095,0.18855259,0.20694977,0.02317455,0.45413607,0.17041129,0.14722291,0.11798751,0.13955703,0.26376364,0.24053389,0.13924211,0.17320471,0.16470769,0.19874613,0.11619224,0.02231756,-0.00982755,0.14309591,0.06963640,0.29208332,0.31238431,0.12170471,0.13355686,0.06327321,0.44403180,0.03478651,-0.08619346,0.16645542,0.03149799,0.17721535,1.28659070,0.50596863,0.35155103,0.17140052,0.29303688,0, 00:00:13.2
134,0.10074775,0.06142435,0.15652244,0.22145082,0.13093646,0.14031102,0.21484882,0.18423529,0.06581220,0.23715466,0.18871525,0.12356546,0.11123857,0.21307515,0.18922837,0.18992490,0.15316828,0.19237588,0.20958796,0.01932473,0.46187243,0.16956155,0.14678530,0.11884148,0.14068332,0.26857176,0.24666925,0.14468658,0.17701812,0.16488114,0.19990966,0.11537920,0.01967318,-0.01145175,0.14227282,0.06931201,0.29594392,0.31880063,0.12458485,0.13452822,0.06213069,0.44992048,0.03055335,-0.09156454,0.16497675,0.03018506,0.17671925,1.31031168,0.51326954,0.35697585,0.16958067,0.29326269,0, 00:00:13.3
135,0.10356788,0.06238158,0.16029614,0.22701855,0.13438272,0.14503293,0.22099845,0.19017665,0.06540994,0.24280515,0.19116089,0.12462888,0.11246116,0.21811166,0.19421721,0.19492583,0.15955912,0.19894296,0.21401559,0.01600728,0.47187087,0.16985582,0.14706279,0.12087756,0.14414692,0.27526078,0.25460935,0.15329857,0.18204959,0.16659822,0.20225564,0.11548447,0.01769456,-0.01241005,0.14258836,0.07186604,0.30135101,0.32724115,0.12910286,0.13860698,0.06157733,0.45682520,0.02756462,-0.09590686,0.16428909,0.03058409,0.17738754,1.33425963,0.52190608,0.36652142,0.17131929,0.29510283,0, 00:00:13.4
136,0.10666652,0.06330015,0.16382496,0.23291247,0.13856916,0.15032029,0.22794999,0.19670235,0.06557860,0.24890031,0.19441776,0.12609401,0.11427524,0.22338234,0.19947100,0.20057087,0.16673751,0.20621254,0.21965590,0.01351484,0.48192155,0.17092463,0.14813970,0.12387459,0.14838453,0.28251886,0.26287991,0.16243662,0.18702382,0.16881101,0.20460732,0.11634686,0.01524514,-0.01282179,0.14342755,0.07484336,0.30695447,0.33601344,0.13395506,0.14273909,0.06091371,0.46236473,0.02450750,-0.09902089,0.16434509,0.03152131,0.17837110,1.35851586,0.53133577,0.37642562,0.17293012,0.29768187,0, 00:00:13.5
137,0.10984913,0.06411727,0.16733308,0.23915654,0.14317647,0.15593849,0.23575602,0.20374322,0.06590286,0.25536969,0.19806246,0.12762672,0.11639779,0.22879413,0.20520324,0.20652401,0.17406940,0.21434155,0.22621375,0.01169067,0.49153712,0.17221630,0.14963549,0.12736003,0.15300289,0.29028141,0.27133009,0.17133790,0.19187596,0.17140239,0.20737369,0.11769036,0.01233781,-0.01286960,0.14455427,0.07793312,0.31287581,0.34490645,0.13878100,0.14774126,0.06032038,0.46693793,0.02103884,-0.10125783,0.16478784,0.03275343,0.17957748,1.38262784,0.54114223,0.38760766,0.17539424,0.30067822,0, 00:00:13.6
138,0.11235415,0.06440833,0.17013648,0.24464610,0.14753053,0.16106880,0.24226011,0.20948394,0.06603417,0.26101962,0.20129310,0.12844658,0.11805755,0.23347306,0.21053740,0.21204337,0.18147613,0.22135974,0.23270528,0.01050539,0.49917632,0.17279059,0.15053436,0.13045175,0.15697768,0.29730567,0.27958083,0.17990346,0.19618173,0.17381166,0.21005270,0.11849626,0.00945427,-0.01321117,0.14536592,0.08055275,0.31959906,0.35432744,0.14380999,0.15150924,0.05935776,0.46991637,0.01687209,-0.10311315,0.16476278,0.03377884,0.18097752,1.40690064,0.55093396,0.39733315,0.17589530,0.30190134,0, 00:00:13.7
139,0.11345899,0.06341513,0.17140289,0.24860023,0.14998929,0.16441956,0.24685466,0.21348201,0.06539655,0.26521140,0.20355000,0.12779519,0.11910114,0.23636803,0.21388319,0.21509531,0.18705066,0.22615436,0.23847492,0.00939284,0.50434184,0.17230517,0.15053244,0.13279319,0.15886605,0.30233783,0.28592211,0.18594441,0.19910596,0.17517126,0.21127301,0.11835773,0.00578823,-0.01389933,0.14515075,0.08065929,0.32403135,0.36235535,0.14759180,0.15275930,0.05790287,0.47010520,0.01214248,-0.10543551,0.16410401,0.03317355,0.18117134,1.43055391,0.55910224,0.40357974,0.17327186,0.30157819,0, 00:00:13.8
140,0.11467907,0.06258576,0.17290208,0.25252226,0.15220170,0.16758262,0.25185159,0.21799240,0.06453483,0.26963705,0.20583728,0.12720412,0.12015760,0.23937574,0.21691453,0.21791878,0.19206010,0.23116213,0.24424565,0.00819288,0.51008558,0.17197460,0.15056850,0.13519634,0.16072424,0.30724794,0.29176551,0.19104351,0.20181760,0.17672096,0.21260910,0.11812489,0.00184736,-0.01465594,0.14484811,0.08058885,0.32767445,0.36952439,0.15080942,0.15440787,0.05674438,0.47026566,0.00733087,-0.10769448,0.16378784,0.03255153,0.18126781,1.45729947,0.56663132,0.41025147,0.17179193,0.30172125,0, 00:00:13.9
141,0.11751553,0.06308011,0.17587306,0.25803152,0.15608214,0.17254993,0.25946641,0.22475943,0.06406756,0.27517316,0.20911971,0.12818556,0.12182452,0.24385728,0.22209387,0.22290507,0.19935603,0.23869719,0.25113633,0.00726581,0.51872045,0.17233005,0.15129101,0.13838714,0.16487567,0.31401297,0.29943970,0.19892418,0.20586260,0.17958757,0.21461825,0.11864489,-0.00099797,-0.01476539,0.14569552,0.08315738,0.33254027,0.37860987,0.15533620,0.15928318,0.05707970,0.47260162,0.00347904,-0.10963859,0.16419049,0.03368994,0.18264559,1.48613036,0.57568383,0.42144978,0.17481020,0.30363905,0, 00:00:14.0
142,0.12160465,0.06463753,0.18013059,0.26462215,0.16131352,0.17885189,0.26822996,0.23284990,0.06417271,0.28128341,0.21337979,0.13097838,0.12391966,0.24959281,0.22861886,0.22963646,0.20840476,0.24756886,0.25845349,0.00675792,0.52710110,0.17257869,0.15164542,0.14177676,0.17088392,0.32252660,0.30874836,0.20961489,0.21160899,0.18367752,0.21496119,0.12046850,-0.00201081,-0.01417546,0.14735110,0.08766394,0.33858517,0.38982779,0.16160168,0.16678031,0.05696560,0.47327036,0.00027812,-0.11470972,0.16509141,0.03649123,0.18580416,1.51796019,0.58660012,0.43643737,0.17796707,0.30543903,0, 00:00:14.1
143,0.12554990,0.06660400,0.18477683,0.27147892,0.16641472,0.18507874,0.27613801,0.24085477,0.06465677,0.28729427,0.21762893,0.13437048,0.12600346,0.25551456,0.23492877,0.23616874,0.21718515,0.25620648,0.26548633,0.00641890,0.53200257,0.17195152,0.15135665,0.14449307,0.17688796,0.33104938,0.31840649,0.22077113,0.21849965,0.18870765,0.21349311,0.12230094,-0.00483054,-0.01362618,0.14901155,0.09215246,0.34511128,0.40195465,0.16868739,0.17590129,0.05447708,0.47134081,-0.00434361,-0.12478112,0.16600056,0.03983502,0.18999305,1.55151474,0.59788030,0.45254880,0.17891169,0.30679962,0, 00:00:14.2
144,0.12926720,0.06858217,0.18957627,0.27839190,0.17126063,0.19101349,0.28326347,0.24837820,0.06582096,0.29301599,0.22157933,0.13773465,0.12806982,0.26146793,0.24062389,0.24229568,0.22572854,0.26466399,0.27205473,0.00615501,0.53440994,0.17077793,0.15051432,0.14695325,0.18258256,0.33917323,0.32781175,0.23213874,0.22625424,0.19347818,0.21060522,0.12346501,-0.00909827,-0.01373704,0.15050124,0.09674770,0.35221985,0.41449162,0.17657407,0.18558842,0.04992779,0.46919027,-0.01090328,-0.13779093,0.16621554,0.04338491,0.19430658,1.57790172,0.60896188,0.46837720,0.17883591,0.30814129,0, 00:00:14.3
145,0.13176389,0.06985390,0.19316280,0.28365687,0.17438801,0.19539036,0.28722170,0.25324759,0.06778316,0.29667023,0.22423694,0.13975878,0.12953965,0.26609582,0.24429038,0.24628343,0.23287272,0.27050585,0.27687505,0.00611733,0.53195518,0.16815670,0.14839663,0.14840119,0.18620844,0.34548625,0.33563060,0.24218222,0.23363659,0.19677098,0.20511872,0.12301799,-0.01491960,-0.01493034,0.15113777,0.09994297,0.35979110,0.42658857,0.18432498,0.19235273,0.04325481,0.46470878,-0.01920973,-0.15297620,0.16484478,0.04601360,0.19736211,1.59175360,0.61825490,0.47949642,0.17415982,0.30822372,0, 00:00:14.4
146,0.13330241,0.07055130,0.19549657,0.28748956,0.17577852,0.19811806,0.28932241,0.25654736,0.06980848,0.29959640,0.22615464,0.14048871,0.13068148,0.26934168,0.24694663,0.24797028,0.23807861,0.27452859,0.28091142,0.00648914,0.52745658,0.16466092,0.14568712,0.14940126,0.18765336,0.34981039,0.34120902,0.24964741,0.24009870,0.19885977,0.19913332,0.12195399,-0.02054862,-0.01643730,0.15079136,0.10105085,0.36578164,0.43672201,0.19101229,0.19744503,0.03746373,0.46088359,-0.02801584,-0.16721863,0.16188355,0.04746429,0.19792424,1.59181511,0.62459117,0.48722979,0.16797481,0.30771664,0, 00:00:14.5
147,0.13530602,0.07164656,0.19815826,0.29139999,0.17748100,0.20108284,0.29253978,0.26078969,0.07175360,0.30330181,0.22835870,0.14149222,0.13200589,0.27290353,0.24967289,0.24975891,0.24311733,0.27972716,0.28537303,0.00741523,0.52743167,0.16165185,0.14329594,0.15083171,0.18944591,0.35409209,0.34632561,0.25698763,0.24678306,0.20121844,0.19620791,0.12176315,-0.02342364,-0.01724382,0.15084402,0.10243922,0.37155533,0.44577071,0.19761652,0.20390989,0.03565225,0.46274561,-0.03504198,-0.17804977,0.15875290,0.04952608,0.19789116,1.58859134,0.62955064,0.49669722,0.16502780,0.30842084,0, 00:00:14.6
148,0.13898069,0.07414439,0.20217234,0.29688135,0.18104483,0.20606685,0.29851413,0.26729012,0.07402263,0.30834678,0.23151121,0.14419052,0.13399281,0.27791300,0.25398958,0.25382003,0.25075155,0.28760961,0.29116860,0.00850332,0.53105789,0.15977815,0.14160620,0.15326679,0.19356006,0.36011845,0.35318878,0.26787424,0.25513554,0.20481846,0.19667459,0.12288111,-0.02516433,-0.01715764,0.15223069,0.10646542,0.37788320,0.45620608,0.20591927,0.21356091,0.03502852,0.46857300,-0.04059169,-0.18688133,0.15674455,0.05343801,0.19941393,1.58891344,0.63583410,0.51064658,0.16612463,0.31147194,0, 00:00:14.7
149,0.14314772,0.07691600,0.20660524,0.30277950,0.18547429,0.21171576,0.30504167,0.27432457,0.07634257,0.31356156,0.23517039,0.14745814,0.13627724,0.28334409,0.25870621,0.25883839,0.25926739,0.29619095,0.29731211,0.00917658,0.53323632,0.15819648,0.14014281,0.15623561,0.19849703,0.36672497,0.36062694,0.28025109,0.26440549,0.20893160,0.19939698,0.12496593,-0.02671200,-0.01627342,0.15415916,0.11137474,0.38465995,0.46699122,0.21523394,0.22410095,0.03351279,0.47519821,-0.04571879,-0.19387148,0.15429561,0.05851746,0.20176794,1.59004450,0.64289987,0.52619249,0.16805601,0.31590447,0, 00:00:14.8
150,0.14714530,0.07969874,0.21109252,0.30845502,0.18980223,0.21727373,0.31143841,0.28140041,0.07841104,0.31820720,0.23897111,0.15076721,0.13851719,0.28876680,0.26346150,0.26353174,0.26742539,0.30488396,0.30292329,0.00864027,0.53276014,0.15641910,0.13843435,0.15923664,0.20343061,0.37298000,0.36793184,0.29261243,0.27405354,0.21293874,0.20355001,0.12724145,-0.02882317,-0.01513867,0.15616384,0.11612740,0.39141634,0.47729123,0.22485584,0.23508650,0.03038252,0.48151603,-0.05069710,-0.20027094,0.15248217,0.06399734,0.20435278,1.59217858,0.64992857,0.54324919,0.16947781,0.32061222,0, 00:00:14.9
151,0.15064228,0.08230989,0.21535082,0.31367642,0.19357568,0.22234045,0.31665432,0.28772664,0.08060434,0.32165650,0.24227171,0.15349393,0.14047660,0.29382253,0.26777115,0.26781219,0.27505496,0.31265900,0.30751497,0.00676742,0.52892965,0.15420964,0.13568659,0.16178624,0.20783214,0.37876067,0.37494379,0.30475813,0.28379917,0.21614926,0.20594969,0.12900387,-0.03178357,-0.01455308,0.15802158,0.12042888,0.39735484,0.48726198,0.23454149,0.24471763,0.02476729,0.48490655,-0.05562988,-0.20951134,0.15122601,0.06915085,0.20701839,1.59424067,0.65653419,0.55925292,0.16632897,0.32382807,0, 00:00:15.0
152,0.15233137,0.08358791,0.21767683,0.31617692,0.19515906,0.22525974,0.31844029,0.29116434,0.08264914,0.32246438,0.24428736,0.15423585,0.14171317,0.29668924,0.26929051,0.26932985,0.28011397,0.31704599,0.30977976,0.00412916,0.51789773,0.15017556,0.13162316,0.16294852,0.20924731,0.38175389,0.37966561,0.31393382,0.29222491,0.21693590,0.20342860,0.12881130,-0.03780340,-0.01550003,0.15836653,0.12127305,0.40206459,0.49482435,0.24261434,0.24975109,0.01493441,0.48449671,-0.06315911,-0.22326659,0.14933448,0.07189469,0.20775034,1.59177911,0.66072839,0.56887060,0.15466106,0.32588804,0, 00:00:15.1
153,0.15312704,0.08409785,0.21901911,0.31757119,0.19543849,0.22693595,0.31916240,0.29376256,0.08499999,0.32274994,0.24561062,0.15364610,0.14285748,0.29838616,0.26905698,0.26921156,0.28319484,0.32050389,0.31161904,0.00319494,0.50832802,0.14570038,0.12718120,0.16388185,0.20897655,0.38295448,0.38237444,0.32037327,0.29925084,0.21586138,0.20024280,0.12773168,-0.04382390,-0.01668528,0.15771414,0.12028376,0.40519905,0.49978569,0.24919698,0.25275388,0.00666487,0.48770478,-0.07085960,-0.23479547,0.14663284,0.07340696,0.20675486,1.58566713,0.66258991,0.57436514,0.14375299,0.32770070,0, 00:00:15.2
154,0.15431927,0.08486417,0.22070406,0.31938064,0.19620280,0.22907962,0.32149500,0.29747766,0.08781182,0.32438147,0.24672198,0.15313041,0.14412840,0.30036405,0.26901937,0.26952434,0.28681847,0.32537282,0.31453511,0.00309319,0.50556237,0.14220659,0.12288668,0.16519745,0.20927514,0.38430831,0.38508993,0.32719919,0.30592412,0.21441567,0.19777380,0.12732001,-0.04831430,-0.01733129,0.15735105,0.12052323,0.40811947,0.50419736,0.25602406,0.25698888,0.00160012,0.49322027,-0.07544284,-0.24270216,0.14351471,0.07554659,0.20572115,1.57891273,0.66419321,0.58058065,0.13827203,0.33042282,0, 00:00:15.3
155,0.15684837,0.08672019,0.22341105,0.32233071,0.19865306,0.23282555,0.32619619,0.30298135,0.09080578,0.32736209,0.24851125,0.15367667,0.14573866,0.30345875,0.27102789,0.27167317,0.29270163,0.33227307,0.31873852,0.00313580,0.50673312,0.13975680,0.11948340,0.16753498,0.21155560,0.38714898,0.38922542,0.33694425,0.31325465,0.21391295,0.19635381,0.12769796,-0.05148925,-0.01697717,0.15811689,0.12348402,0.41229472,0.51031673,0.26426601,0.26322988,-0.00195926,0.49888724,-0.07799680,-0.24804030,0.14105918,0.07924809,0.20575485,1.57017529,0.66672212,0.59015250,0.13725331,0.33327830,0, 00:00:15.4
156,0.15935704,0.08838236,0.22604431,0.32547826,0.20110218,0.23665801,0.33073530,0.30838081,0.09375158,0.33029488,0.25032222,0.15428413,0.14738309,0.30650488,0.27264988,0.27384591,0.29890299,0.33919927,0.32305214,0.00324665,0.50780135,0.13731973,0.11691993,0.17020909,0.21402077,0.39001420,0.39325044,0.34713647,0.32031173,0.21368466,0.19526377,0.12815149,-0.05382083,-0.01617312,0.15910609,0.12691902,0.41625613,0.51662344,0.27294034,0.26902038,-0.00534493,0.50415415,-0.08053111,-0.25236970,0.13895027,0.08342873,0.20615672,1.55963910,0.66933632,0.59946138,0.13619320,0.33508152,0, 00:00:15.5
157,0.16171236,0.08978335,0.22841609,0.32841134,0.20346090,0.24030070,0.33523721,0.31361631,0.09636492,0.33316514,0.25207895,0.15490988,0.14904502,0.30938050,0.27458292,0.27567449,0.30481488,0.34609970,0.32695720,0.00321202,0.50888491,0.13523664,0.11464645,0.17284758,0.21633665,0.39272326,0.39668182,0.35697260,0.32686785,0.21353789,0.19469059,0.12849346,-0.05617242,-0.01502356,0.16007923,0.13026896,0.42055717,0.52239746,0.28159711,0.27384731,-0.00871370,0.50923640,-0.08288040,-0.25601250,0.13702124,0.08774266,0.20640706,1.54617357,0.67160881,0.60792857,0.13493778,0.33642882,0, 00:00:15.6
158,0.16305499,0.09015179,0.22953062,0.32998425,0.20468950,0.24282973,0.33763483,0.31695956,0.09831280,0.33460170,0.25319654,0.15436679,0.15020853,0.31098926,0.27596217,0.27645707,0.30942810,0.35098973,0.32953680,0.00277379,0.50774580,0.13223428,0.11193649,0.17471965,0.21721388,0.39404374,0.39903593,0.36522603,0.33198878,0.21211489,0.19309050,0.12835577,-0.05897999,-0.01422936,0.16038495,0.13189492,0.42395234,0.52684826,0.28919539,0.27518693,-0.01284067,0.51218277,-0.08617441,-0.25982219,0.13472594,0.09103745,0.20600639,1.53361070,0.67287630,0.61236000,0.13051021,0.33620608,0, 00:00:15.7
159,0.16254380,0.08901445,0.22886086,0.32953003,0.20386603,0.24314857,0.33718982,0.31793252,0.09907660,0.33436772,0.25290954,0.15183772,0.15040380,0.31053922,0.27401733,0.27470022,0.31090966,0.35275334,0.33009848,0.00154945,0.50309837,0.12774146,0.10803446,0.17523929,0.21527825,0.39265290,0.39877483,0.36946225,0.33469799,0.20894559,0.18954919,0.12695473,-0.06271909,-0.01408216,0.15917356,0.13011320,0.42468932,0.52802628,0.29421490,0.27316707,-0.01790953,0.51196903,-0.09111895,-0.26380694,0.13104314,0.09223891,0.20391925,1.52122545,0.67135191,0.61216801,0.12300324,0.33335778,0, 00:00:15.8
160,0.16172804,0.08758213,0.22785977,0.32840407,0.20235248,0.24279872,0.33630639,0.31843251,0.09890947,0.33334124,0.25205916,0.14882974,0.15012805,0.30959183,0.27167687,0.27202553,0.31095153,0.35374829,0.32998216,-0.00062134,0.49805951,0.12292527,0.10363186,0.17515635,0.21256495,0.39012089,0.39726216,0.37185875,0.33634397,0.20523530,0.18577410,0.12482325,-0.06697838,-0.01430130,0.15731469,0.12763318,0.42418274,0.52730954,0.29787108,0.27066672,-0.02321147,0.51106626,-0.09615994,-0.26757011,0.12691019,0.09284159,0.20083457,1.50795662,0.66812187,0.61115223,0.11565484,0.32961240,0, 00:00:15.9
161,0.16171508,0.08684776,0.22771725,0.32817397,0.20164695,0.24347980,0.33748218,0.32053274,0.09850506,0.33277553,0.25142443,0.14660232,0.15016793,0.30941430,0.27066505,0.27027860,0.31231096,0.35644692,0.33055973,-0.00333965,0.49490106,0.11837000,0.09953976,0.17537177,0.21100898,0.38824099,0.39621812,0.37547848,0.33833280,0.20237909,0.18313135,0.12293090,-0.07083861,-0.01427691,0.15565765,0.12669067,0.42382231,0.52698016,0.30181181,0.27093109,-0.02769405,0.51137084,-0.10077838,-0.27043843,0.12337685,0.09417797,0.19784887,1.49266613,0.66470045,0.61327511,0.11212394,0.32677469,0, 00:00:16.0
162,0.16296339,0.08702677,0.22856827,0.32937202,0.20280087,0.24587856,0.34079286,0.32429701,0.09854949,0.33279091,0.25158221,0.14553331,0.15086995,0.31040856,0.27134290,0.27050892,0.31605333,0.36115766,0.33227915,-0.00567904,0.49394959,0.11470527,0.09644173,0.17639984,0.21153554,0.38793167,0.39671481,0.38187987,0.34108534,0.20066622,0.18206497,0.12177873,-0.07387216,-0.01371436,0.15502584,0.12816641,0.42406815,0.52840346,0.30703369,0.27324542,-0.03104555,0.51271385,-0.10435428,-0.27226558,0.12122121,0.09686995,0.19567819,1.47526932,0.66245115,0.61857384,0.11138853,0.32521427,0, 00:00:16.1
163,0.16420732,0.08724153,0.22946967,0.33071771,0.20453735,0.24842346,0.34412351,0.32797208,0.09868784,0.33266965,0.25198203,0.14477235,0.15159357,0.31151667,0.27238268,0.27107534,0.31989443,0.36582404,0.33398095,-0.00783998,0.49382579,0.11137997,0.09372272,0.17768066,0.21248129,0.38779289,0.39744011,0.38861784,0.34382671,0.19912651,0.18163674,0.12096021,-0.07651314,-0.01296729,0.15472834,0.12980208,0.42391509,0.52978784,0.31243858,0.27515143,-0.03355262,0.51400173,-0.10776176,-0.27404594,0.12006577,0.09969364,0.19384132,1.45873475,0.66080374,0.62402993,0.11058501,0.32368752,0, 00:00:16.2
164,0.16546193,0.08761065,0.23052216,0.33235174,0.20640095,0.25094005,0.34749433,0.33149809,0.09882728,0.33271840,0.25255421,0.14426732,0.15231833,0.31269193,0.27373049,0.27174792,0.32376871,0.37035069,0.33533168,-0.00985969,0.49369171,0.10831449,0.09113460,0.17896785,0.21367134,0.38787442,0.39804187,0.39538595,0.34662464,0.19757311,0.18149197,0.12042646,-0.07869547,-0.01208801,0.15457536,0.13151786,0.42386433,0.53111064,0.31779498,0.27656299,-0.03533166,0.51530886,-0.11061827,-0.27582291,0.11918361,0.10258082,0.19245294,1.44400847,0.65972459,0.62929815,0.10956952,0.32210940,0, 00:00:16.3
165,0.16525204,0.08693135,0.23020293,0.33241543,0.20667696,0.25187108,0.34789038,0.33262572,0.09860067,0.33133850,0.25217143,0.14232466,0.15242003,0.31238127,0.27323836,0.27050656,0.32582477,0.37199903,0.33527640,-0.01174408,0.49096414,0.10415971,0.08794881,0.17922367,0.21294510,0.38648605,0.39727476,0.40000430,0.34805310,0.19506551,0.17961237,0.11912851,-0.08113820,-0.01165428,0.15339661,0.13113201,0.42256105,0.53124601,0.32195073,0.27501941,-0.03756044,0.51406515,-0.11439048,-0.27813590,0.11748255,0.10409696,0.19037098,1.42905736,0.65759337,0.63041031,0.10464881,0.31848490,0, 00:00:16.4
166,0.16361053,0.08550519,0.22922768,0.33094624,0.20471811,0.25079083,0.34602848,0.33201438,0.09766732,0.32833597,0.25018311,0.13917109,0.15161711,0.31082880,0.27058873,0.26687297,0.32533374,0.37145403,0.33355457,-0.01441296,0.48573062,0.09865739,0.08367239,0.17808914,0.21016881,0.38304296,0.39437088,0.40161851,0.34839994,0.19181326,0.17539068,0.11668433,-0.08347080,-0.01167068,0.15118633,0.12883970,0.42015177,0.52958536,0.32465547,0.27221867,-0.04094111,0.51088345,-0.11890629,-0.28178146,0.11471926,0.10425619,0.18741003,1.41356981,0.65334785,0.62901628,0.09759364,0.31326219,0, 00:00:16.5
167,0.16185318,0.08458525,0.22850837,0.32917577,0.20236103,0.24929416,0.34358907,0.33098954,0.09691577,0.32457921,0.24741045,0.13606402,0.15024820,0.30919763,0.26739302,0.26257256,0.32422391,0.37066662,0.33083838,-0.01757930,0.47970164,0.09298170,0.07881282,0.17619075,0.20703243,0.37898305,0.39071590,0.40311235,0.34895134,0.18839362,0.17128879,0.11366028,-0.08530241,-0.01201922,0.14881001,0.12691787,0.41799158,0.52814007,0.32790688,0.27033252,-0.04458889,0.50886452,-0.12346394,-0.28612676,0.11123539,0.10421947,0.18497799,1.39741170,0.64796591,0.62753767,0.09180033,0.30777162,0, 00:00:16.6
168,0.16165067,0.08515465,0.22888611,0.32843110,0.20147929,0.24916379,0.34330496,0.33179328,0.09667659,0.32232773,0.24519932,0.13446809,0.14952953,0.30871832,0.26541221,0.25980428,0.32508647,0.37215295,0.32912001,-0.02018135,0.47563472,0.08859062,0.07491750,0.17525172,0.20548800,0.37583652,0.38807642,0.40731665,0.35072243,0.18612643,0.16983296,0.11167324,-0.08634264,-0.01154597,0.14742731,0.12740672,0.41740578,0.52864659,0.33300933,0.27174318,-0.04699938,0.50961280,-0.12654382,-0.28796402,0.10729038,0.10577990,0.18357399,1.37897909,0.64293778,0.62954134,0.09055253,0.30382568,0, 00:00:16.7
169,0.16236554,0.08634315,0.22986665,0.32863829,0.20164631,0.25020903,0.34428072,0.33378956,0.09700262,0.32117501,0.24383216,0.13409030,0.14928369,0.30914238,0.26439810,0.25867182,0.32805538,0.37496948,0.32852271,-0.02233341,0.47261921,0.08477094,0.07153983,0.17508602,0.20544012,0.37362489,0.38706216,0.41418961,0.35365316,0.18489257,0.16852131,0.11047278,-0.08720113,-0.01058375,0.14679728,0.12986764,0.41836777,0.53088266,0.33951131,0.27445570,-0.04878776,0.51001608,-0.12927628,-0.29036272,0.10325140,0.10911048,0.18349358,1.36126697,0.63917857,0.63349193,0.09032217,0.30086374,0, 00:00:16.8
170,0.16311768,0.08756895,0.23083892,0.32872975,0.20189446,0.25110871,0.34535608,0.33620709,0.09753120,0.32030112,0.24270514,0.13417478,0.14907379,0.30962515,0.26329738,0.25753441,0.33105075,0.37809396,0.32792535,-0.02434776,0.46877024,0.08058316,0.06871617,0.17476360,0.20540859,0.37132728,0.38600633,0.42141798,0.35710779,0.18383712,0.16601361,0.10861594,-0.09002219,-0.01022876,0.14613996,0.13251820,0.41928178,0.53318262,0.34647587,0.27719128,-0.05131952,0.50920916,-0.13440560,-0.29667744,0.09933259,0.11305323,0.18403557,1.34371305,0.63572830,0.63734245,0.08919978,0.29830807,0, 00:00:16.9
171,0.16309868,0.08816803,0.23089010,0.32790360,0.20167734,0.25125721,0.34482855,0.33732057,0.09771515,0.31930888,0.24120638,0.13366450,0.14887649,0.30929312,0.26122880,0.25556350,0.33293408,0.37983072,0.32645631,-0.02577931,0.46414161,0.07642278,0.06611632,0.17400573,0.20429389,0.36817116,0.38402638,0.42762253,0.36004183,0.18191126,0.16497353,0.10682873,-0.09138012,-0.00984531,0.14501469,0.13377258,0.41962260,0.53429186,0.35293660,0.27722663,-0.05300753,0.50969952,-0.13930914,-0.30078366,0.09587591,0.11614157,0.18430518,1.32474017,0.63212067,0.63810778,0.08608415,0.29496205,0, 00:00:17.0
172,0.16125445,0.08719968,0.22932236,0.32557163,0.19975534,0.24965557,0.34196660,0.33633146,0.09682805,0.31716979,0.23862216,0.13137357,0.14817715,0.30730325,0.25722191,0.25128677,0.33155254,0.37910447,0.32313970,-0.02794341,0.45823672,0.07163209,0.06305940,0.17232898,0.20079289,0.36280575,0.37963629,0.42990357,0.36130932,0.17852907,0.16499484,0.10466717,-0.09251969,-0.00967951,0.14282304,0.13169201,0.41805068,0.53230059,0.35729104,0.27306217,-0.05467300,0.50958812,-0.14400695,-0.30282071,0.09254909,0.11710041,0.18294521,1.30588901,0.62676191,0.63311875,0.08038848,0.29094675,0, 00:00:17.1
173,0.15907711,0.08582833,0.22735246,0.32274467,0.19730377,0.24744278,0.33879134,0.33492374,0.09540507,0.31437477,0.23571233,0.12854373,0.14717208,0.30487043,0.25287029,0.24649596,0.32902098,0.37781897,0.31933972,-0.03096713,0.45225528,0.06669576,0.05966979,0.17043144,0.19657722,0.35658604,0.37441838,0.43021643,0.36157891,0.17472713,0.16549167,0.10203848,-0.09464795,-0.00969430,0.14019980,0.12862873,0.41521600,0.52845395,0.36029381,0.26768991,-0.05671143,0.50877219,-0.14875714,-0.30397198,0.08931653,0.11739855,0.18072760,1.28721142,0.62010592,0.62635720,0.07481740,0.28682503,0, 00:00:17.2
174,0.15748386,0.08484447,0.22548342,0.32012749,0.19538714,0.24556370,0.33701798,0.33444402,0.09407565,0.31194994,0.23351941,0.12614362,0.14628550,0.30268490,0.24987747,0.24209030,0.32663664,0.37726477,0.31611744,-0.03389223,0.44744918,0.06264142,0.05714430,0.16925760,0.19291689,0.35095546,0.36904961,0.43008646,0.36147258,0.17118125,0.16746631,0.09969171,-0.09662388,-0.00910722,0.13798170,0.12581156,0.41129813,0.52352208,0.36234072,0.26366416,-0.05788515,0.50898749,-0.15234807,-0.30254975,0.08686035,0.11770035,0.17805669,1.26820755,0.61302298,0.62152314,0.07158711,0.28320754,0, 00:00:17.3
175,0.15779868,0.08481091,0.22478966,0.31926560,0.19593661,0.24604614,0.33935487,0.33699659,0.09312940,0.31199279,0.23314698,0.12538850,0.14672124,0.30197796,0.24903898,0.24022341,0.32715517,0.38012156,0.31546578,-0.03548478,0.44752431,0.06146828,0.05715614,0.17038299,0.19235601,0.34777448,0.36568248,0.43236685,0.36201417,0.16949213,0.17364341,0.09953951,-0.09653516,-0.00644956,0.13741192,0.12569860,0.40780979,0.51978815,0.36463571,0.26364002,-0.05609801,0.51234382,-0.15173487,-0.29406330,0.08644614,0.11972395,0.17581587,1.25039291,0.60784715,0.62262005,0.07501492,0.28237253,0, 00:00:17.4
176,0.15855302,0.08494592,0.22458188,0.31892651,0.19755907,0.24754776,0.34293818,0.34033555,0.09221127,0.31258491,0.23321499,0.12513490,0.14761738,0.30174869,0.25006801,0.23960625,0.32924044,0.38411048,0.31545860,-0.03647077,0.44901460,0.06105431,0.05800599,0.17222218,0.19338006,0.34625843,0.36369416,0.43637982,0.36289927,0.16892353,0.18018007,0.10042662,-0.09568340,-0.00294360,0.13770114,0.12699267,0.40506271,0.51780200,0.36773387,0.26472795,-0.05332516,0.51431340,-0.14990017,-0.28500891,0.08719610,0.12283336,0.17449920,1.23551595,0.60472214,0.62607735,0.07977255,0.28245017,0, 00:00:17.5
177,0.15898751,0.08491752,0.22416331,0.31845745,0.19897430,0.24888389,0.34596974,0.34306109,0.09147606,0.31271502,0.23353221,0.12487974,0.14858776,0.30128071,0.25122297,0.23905499,0.33100376,0.38740894,0.31477535,-0.03718527,0.44980633,0.06024725,0.05879354,0.17387106,0.19447917,0.34497398,0.36190358,0.44004774,0.36363000,0.16815591,0.18544139,0.10121937,-0.09522860,0.00042122,0.13842520,0.12778580,0.40223461,0.51601511,0.37069139,0.26474097,-0.05082743,0.51476139,-0.14898118,-0.27863142,0.08908208,0.12573108,0.17352208,1.22247815,0.60246974,0.62886602,0.08275705,0.28197005,0, 00:00:17.6
178,0.15772064,0.08353376,0.22208722,0.31605750,0.19852954,0.24825785,0.34598792,0.34339806,0.09032889,0.31178236,0.23296474,0.12297828,0.14922054,0.29914120,0.25033131,0.23627166,0.33023316,0.38772440,0.31296951,-0.03777026,0.44763201,0.05852870,0.05929655,0.17452851,0.19329172,0.34217393,0.35851938,0.44021893,0.36263752,0.16632739,0.18887347,0.10113850,-0.09588775,0.00325088,0.13807966,0.12563413,0.39823142,0.51231450,0.37172928,0.26112154,-0.04926915,0.51263225,-0.14971150,-0.27266473,0.09059370,0.12694907,0.17158957,1.21222520,0.59935611,0.62625599,0.08123931,0.27979377,0, 00:00:17.7
179,0.15518314,0.08124071,0.21897626,0.31252229,0.19637933,0.24590614,0.34442264,0.34225643,0.08842051,0.30996615,0.23139717,0.11983683,0.14936087,0.29579607,0.24767359,0.23159572,0.32706469,0.38611472,0.31023705,-0.03889612,0.44399607,0.05622709,0.05908568,0.17440204,0.19015251,0.33750030,0.35333836,0.43669799,0.35987651,0.16392343,0.19105451,0.10017703,-0.09754488,0.00555463,0.13684098,0.12108528,0.39262980,0.50659490,0.37060481,0.25569236,-0.04846675,0.50847167,-0.15147872,-0.26595455,0.09143791,0.12666768,0.16861862,1.20419693,0.59466624,0.62026280,0.07821175,0.27720970,0, 00:00:17.8
180,0.15267339,0.07895729,0.21578333,0.30870157,0.19400178,0.24320391,0.34267986,0.34083861,0.08625646,0.30767637,0.22986434,0.11651079,0.14921117,0.29226854,0.24446613,0.22641917,0.32334918,0.38390779,0.30754712,-0.04016313,0.43982336,0.05369189,0.05886818,0.17406091,0.18675856,0.33256826,0.34789208,0.43203193,0.35647929,0.16158673,0.19299591,0.09894922,-0.09933368,0.00770381,0.13543783,0.11619494,0.38646492,0.50051653,0.36845079,0.24982762,-0.04764474,0.50383580,-0.15280730,-0.25893939,0.09212371,0.12599795,0.16527681,1.19599795,0.58943230,0.61337042,0.07528571,0.27487427,0, 00:00:17.9
181,0.15083633,0.07708447,0.21330521,0.30576196,0.19216898,0.24105720,0.34250543,0.34059787,0.08412649,0.30572048,0.22876136,0.11387858,0.14927338,0.28934753,0.24205495,0.22200081,0.32020989,0.38293931,0.30549943,-0.04142537,0.43669116,0.05134137,0.05901771,0.17408018,0.18437472,0.32810393,0.34310961,0.42782015,0.35340092,0.15995015,0.19546182,0.09827682,-0.10031695,0.01025272,0.13454977,0.11236965,0.38151395,0.49536911,0.36640397,0.24645407,-0.04550445,0.50045669,-0.15314300,-0.25156862,0.09305744,0.12581924,0.16223052,1.18756413,0.58429921,0.60942858,0.07577309,0.27318737,0, 00:00:18.0
182,0.15062180,0.07656424,0.21232109,0.30455744,0.19263603,0.24105385,0.34498873,0.34265628,0.08253851,0.30470225,0.22879910,0.11308772,0.15010969,0.28803551,0.24179105,0.22018473,0.32017380,0.38455105,0.30485749,-0.04189054,0.43476748,0.05044018,0.05998640,0.17503205,0.18463732,0.32639095,0.34050882,0.42720288,0.35197142,0.16008285,0.19925861,0.09881835,-0.09992174,0.01350181,0.13508682,0.11165726,0.37806094,0.49300933,0.36597067,0.24699603,-0.04167221,0.49850830,-0.15199815,-0.24429829,0.09551542,0.12761971,0.16097669,1.18237925,0.58101887,0.61144769,0.07981155,0.27229509,0, 00:00:18.1
183,0.15075541,0.07638794,0.21150358,0.30389524,0.19351926,0.24155092,0.34756118,0.34506810,0.08143006,0.30381611,0.22927994,0.11307549,0.15118705,0.28699958,0.24208760,0.21897912,0.32123989,0.38651013,0.30492881,-0.04155494,0.43096039,0.04950093,0.06046084,0.17595628,0.18557730,0.32552207,0.33893073,0.42786920,0.35144475,0.16156015,0.20436478,0.10008620,-0.09939504,0.01687944,0.13584176,0.11156659,0.37533545,0.49214894,0.36623824,0.24933714,-0.03790293,0.49706101,-0.15189448,-0.23879226,0.09865563,0.13025796,0.16088432,1.18014407,0.57899392,0.61553323,0.08229607,0.27208680,0, 00:00:18.2
184,0.15014710,0.07568025,0.20998394,0.30253094,0.19338095,0.24108571,0.34828249,0.34618115,0.07989906,0.30204022,0.22963662,0.11256782,0.15204112,0.28526068,0.24190612,0.21662256,0.32130575,0.38700625,0.30430302,-0.04178845,0.42158809,0.04753329,0.05976514,0.17632884,0.18551706,0.32369515,0.33681166,0.42742079,0.35083601,0.16342162,0.21117511,0.10129710,-0.09959900,0.02016359,0.13605426,0.11012518,0.37279746,0.49095297,0.36622089,0.25108963,-0.03736585,0.49440980,-0.15303078,-0.23400262,0.10148525,0.13232836,0.16086562,1.17748892,0.57667446,0.61898005,0.08035711,0.27059659,0, 00:00:18.3
185,0.14788394,0.07382263,0.20715776,0.29920650,0.19127136,0.23840526,0.34601027,0.34486043,0.07713170,0.29870394,0.22884364,0.11043072,0.15227389,0.28195783,0.23893392,0.21150920,0.31823683,0.38467503,0.30154026,-0.04489376,0.40588954,0.04398409,0.05793856,0.17554392,0.18288502,0.31971237,0.33262223,0.42335048,0.34913138,0.16427650,0.21868005,0.10171282,-0.10114998,0.02263666,0.13500440,0.10559393,0.36857998,0.48752773,0.36443004,0.24969096,-0.04143121,0.48725960,-0.15598786,-0.23065963,0.10344931,0.13260403,0.15959965,1.17384744,0.57231635,0.61853886,0.07374159,0.26437575,0, 00:00:18.4
186,0.14517336,0.07194855,0.20451193,0.29554439,0.18810631,0.23482640,0.34262687,0.34275988,0.07366606,0.29425588,0.22712056,0.10760316,0.15200579,0.27836087,0.23499632,0.20536003,0.31386387,0.38131475,0.29739943,-0.05002012,0.38698146,0.03965146,0.05506180,0.17380458,0.17935807,0.31482524,0.32760718,0.41829899,0.34742439,0.16447265,0.22593950,0.10138757,-0.10287715,0.02454789,0.13352646,0.10045867,0.36410853,0.48362651,0.36201853,0.24717851,-0.04673506,0.48045871,-0.15891361,-0.22956590,0.10486552,0.13215350,0.15796001,1.16991544,0.56653225,0.61676621,0.06473088,0.25662047,0, 00:00:18.5
187,0.14239396,0.07011548,0.20182823,0.29130560,0.18435736,0.23070243,0.33819881,0.34010190,0.07020832,0.28906772,0.22501026,0.10459239,0.15151341,0.27451676,0.23065215,0.19866058,0.30912101,0.37708092,0.29252258,-0.05577781,0.36679071,0.03502721,0.05182880,0.17161348,0.17523670,0.30923533,0.32220843,0.41307983,0.34590760,0.16408026,0.23139289,0.10078552,-0.10430066,0.02615364,0.13163380,0.09500648,0.35936591,0.47949526,0.35947615,0.24306348,-0.05270458,0.47535014,-0.16125762,-0.22994095,0.10595752,0.13120025,0.15600596,1.16557324,0.55975896,0.61290848,0.05217367,0.24885498,0, 00:00:18.6
188,0.14038526,0.06894152,0.19983147,0.28777149,0.18090998,0.22729184,0.33566362,0.33917964,0.06688140,0.28510106,0.22336835,0.10258422,0.15153062,0.27130920,0.22723077,0.19260144,0.30481592,0.37446466,0.28821337,-0.06241569,0.34912267,0.03110295,0.04945857,0.16983508,0.17191136,0.30436128,0.31722596,0.40829608,0.34504196,0.16420874,0.23873064,0.10087609,-0.10534619,0.02819827,0.13004090,0.09022492,0.35439500,0.47530919,0.35693392,0.24118683,-0.05943356,0.47172368,-0.16236517,-0.23045553,0.10752586,0.13060166,0.15396808,1.16060722,0.55271071,0.61142802,0.04221791,0.24108386,0, 00:00:18.7
189,0.13978213,0.06906035,0.19911918,0.28551936,0.17951433,0.22583365,0.33538258,0.34047911,0.06436903,0.28309017,0.22269636,0.10215969,0.15213534,0.26961157,0.22525780,0.18897147,0.30310535,0.37427685,0.28550738,-0.06944855,0.33325365,0.02837436,0.04806670,0.16865988,0.17076159,0.30146834,0.31429937,0.40672970,0.34573644,0.16581203,0.24957687,0.10217395,-0.10563909,0.03079896,0.12934999,0.08809714,0.35146275,0.47342154,0.35600451,0.24297325,-0.06700184,0.46994475,-0.16281559,-0.22996856,0.10942197,0.13173978,0.15318143,1.15534115,0.54696071,0.61473346,0.03641535,0.23250911,0, 00:00:18.8
190,0.13899931,0.06898256,0.19811794,0.28301042,0.17819102,0.22429235,0.33425364,0.34140134,0.06233002,0.28078595,0.22194961,0.10165888,0.15263104,0.26782057,0.22370656,0.18536101,0.30169961,0.37366289,0.28311074,-0.07591413,0.31513029,0.02560025,0.04663979,0.16736045,0.16950342,0.29858235,0.31148994,0.40585673,0.34693685,0.16700815,0.25902790,0.10385724,-0.10627674,0.03350138,0.12857071,0.08598906,0.34948227,0.47205642,0.35564229,0.24367508,-0.07458877,0.46847835,-0.16323741,-0.22927351,0.11083651,0.13290732,0.15262881,1.14670277,0.54123068,0.61643732,0.02767546,0.22339866,0, 00:00:18.9
