Header
File Version,1.24
Patient Information
ID,10029
Name,
Comment,VFT trial2 (4-3-3),,
Birth Date,0000/00/00
Age, 55y
Sex,Male
Analyze Information
AnalyzeMode,Integral
Pre Time[s],10.0
Post Time[s],5.0
Recovery Time[s],50.0
Base Time[s],5
Fitting Degree,1
HPF[Hz],No Filter
LPF[Hz],No Filter
Moving Average[s],5.0
Measure Information
Date,2015/05/11 12:37
Probe Type,adult
Mode,3x11
Wave[nm],695,830
Wave Length,CH1(703.0),CH1(827.2),CH2(703.0),CH2(826.5),CH3(703.0),CH3(826.5),CH4(703.0),CH4(827.2),CH5(703.0),CH5(827.2),CH6(703.0),CH6(827.2),CH7(703.0),CH7(827.2),CH8(703.7),CH8(827.2),CH9(703.7),CH9(827.2),CH10(704.5),CH10(827.9),CH11(703.0),CH11(827.2),CH12(703.7),CH12(827.2),CH13(703.0),CH13(826.5),CH14(703.7),CH14(827.2),CH15(703.0),CH15(827.2),CH16(703.0),CH16(827.9),CH17(703.0),CH17(827.2),CH18(704.5),CH18(826.5),CH19(703.7),CH19(827.2),CH20(704.5),CH20(826.5),CH21(704.5),CH21(827.9),CH22(703.7),CH22(827.2),CH23(703.7),CH23(827.2),CH24(703.7),CH24(827.2),CH25(703.7),CH25(827.2),CH26(703.0),CH26(827.9),CH27(703.0),CH27(827.9),CH28(704.5),CH28(826.5),CH29(704.5),CH29(826.5),CH30(704.5),CH30(826.5),CH31(704.5),CH31(826.5),CH32(703.7),CH32(826.5),CH33(703.7),CH33(827.2),CH34(704.5),CH34(826.5),CH35(703.7),CH35(827.2),CH36(703.0),CH36(826.5),CH37(703.0),CH37(827.9),CH38(704.5),CH38(826.5),CH39(704.5),CH39(826.5),CH40(703.7),CH40(827.2),CH41(704.5),CH41(826.5),CH42(704.5),CH42(825.7),CH43(703.7),CH43(826.5),CH44(704.5),CH44(826.5),CH45(704.5),CH45(826.5),CH46(703.0),CH46(826.5),CH47(703.0),CH47(826.5),CH48(704.5),CH48(826.5),CH49(704.5),CH49(826.5),CH50(703.7),CH50(827.2),CH51(703.7),CH51(827.2),CH52(704.5),CH52(825.7)
Analog Gain,42.35294100,42.35294100,42.35294100,42.35294100,28.23529400,28.23529400,28.23529400,28.23529400,34.50980400,34.50980400,34.50980400,34.50980400,4.70588200,4.70588200,4.70588200,4.70588200,8.31372500,8.31372500,8.31372500,8.31372500,287.05882400,287.05882400,42.35294100,42.35294100,13.56862700,13.56862700,28.23529400,28.23529400,13.80392200,13.80392200,34.50980400,34.50980400,6.58823500,6.58823500,4.70588200,4.70588200,3.76470600,3.76470600,8.31372500,8.31372500,90.98039200,90.98039200,287.05882400,287.05882400,13.56862700,13.56862700,13.56862700,13.56862700,13.80392200,13.80392200,13.80392200,13.80392200,6.58823500,6.58823500,6.58823500,6.58823500,3.76470600,3.76470600,3.76470600,3.76470600,90.98039200,90.98039200,287.05882400,287.05882400,48.62745100,48.62745100,13.56862700,13.56862700,5.88235300,5.88235300,13.80392200,13.80392200,4.70588200,4.70588200,6.58823500,6.58823500,5.17647100,5.17647100,3.76470600,3.76470600,26.66666700,26.66666700,90.98039200,90.98039200,48.62745100,48.62745100,48.62745100,48.62745100,5.88235300,5.88235300,5.88235300,5.88235300,4.70588200,4.70588200,4.70588200,4.70588200,5.17647100,5.17647100,5.17647100,5.17647100,26.66666700,26.66666700,26.66666700,26.66666700
Digital Gain,163.00000000,147.75000000,21.36000000,3.42000000,7.98000000,2.30000000,101.38000000,13.84000000,163.00000000,88.09000000,76.99000000,8.94000000,163.00000000,35.53000000,7.82000000,1.90000000,9.78000000,2.66000000,33.87000000,4.73000000,163.00000000,56.24000000,15.40000000,1.83000000,14.51000000,2.20000000,16.56000000,3.47000000,163.00000000,163.00000000,6.61000000,1.43000000,163.00000000,34.02000000,19.03000000,4.52000000,27.26000000,7.22000000,13.38000000,2.90000000,37.00000000,2.30000000,60.50000000,4.87000000,163.00000000,14.54000000,68.47000000,8.97000000,16.26000000,3.64000000,17.06000000,4.78000000,12.53000000,3.17000000,10.70000000,3.07000000,7.72000000,2.33000000,97.39000000,19.33000000,27.00000000,2.83000000,17.35000000,1.79000000,46.59000000,4.70000000,12.05000000,2.41000000,27.44000000,7.57000000,10.19000000,3.23000000,19.02000000,8.82000000,17.52000000,8.39000000,10.97000000,4.00000000,12.49000000,4.37000000,11.10000000,2.08000000,128.68000000,13.19000000,11.58000000,1.96000000,30.86000000,6.84000000,19.91000000,6.65000000,5.16000000,2.00000000,4.43000000,2.30000000,14.74000000,8.47000000,8.74000000,5.88000000,8.59000000,3.74000000,11.74000000,3.21000000,62.03000000,11.39000000
Sampling Period[s],0.1
StimType,STIM(VFT)
Stim Time[s]
A,60,B,15,C,15,D,15,E,15,F,15,G,15,H,15,I,15,J,15
Repeat Count,1
Exception Ch,1,0,0,0,1,0,1,0,0,0,1,0,0,0,1,0,1,0,0,0,0,0,1,0,0,0,0,0,0,0,0,0,0,0,0,0,0,0,0,0,0,0,0,0,0,0,0,0,0,0,0,0






Data
Probe1(Oxy),CH1,CH2,CH3,CH4,CH5,CH6,CH7,CH8,CH9,CH10,CH11,CH12,CH13,CH14,CH15,CH16,CH17,CH18,CH19,CH20,CH21,CH22,CH23,CH24,CH25,CH26,CH27,CH28,CH29,CH30,CH31,CH32,CH33,CH34,CH35,CH36,CH37,CH38,CH39,CH40,CH41,CH42,CH43,CH44,CH45,CH46,CH47,CH48,CH49,CH50,CH51,CH52,Mark,Time,BodyMovement,RemovalMark,PreScan
1,-6.47436762,0.02820315,0.02788146,0.00917902,-0.01577071,0.04180218,0.04030854,0.04601306,0.03741652,0.00705461,-12.54281712,0.03265079,0.00400366,0.02312825,0.01052229,0.02559904,0.06914026,0.07173835,0.04595144,-0.01301040,0.01815269,0.02777523,0.01565478,-0.00898699,0.02299528,0.03866015,0.02066723,0.05625545,0.04178908,-0.02251804,-0.00498719,0.04615477,0.04207738,-0.02743243,-0.00573859,0.03922354,-0.00690270,0.05318516,0.06690715,-0.03166211,-0.01212591,0.02877124,0.04310752,0.02799579,-0.02076769,0.01834477,0.04577655,0.03437197,0.07200518,0.02840213,-0.01883115,0.00454015,0, 00:00:00.0
2,-7.01545668,0.02334875,0.02374377,0.00805734,-0.03516637,0.03726847,0.03572759,0.03796731,0.02980482,0.00136270,-12.82394314,0.02730072,-0.00108964,0.01706041,0.01567114,0.01922507,0.06145614,0.06407040,0.03525581,-0.01802537,0.01037917,0.01905496,0.01489589,-0.01361246,0.01640391,0.03192240,0.01502504,0.05034570,0.03419768,-0.02597019,-0.00461682,0.04381204,0.03760697,-0.02713863,-0.01116310,0.03277840,-0.01357539,0.04453921,0.05644304,-0.04118550,-0.01527853,0.02160239,0.03884850,0.02086825,-0.03056714,0.01066448,0.03779656,0.02583911,0.05693039,0.01544382,-0.02957946,-0.00209915,0, 00:00:00.1
3,-7.09472513,0.01976943,0.01997927,0.00717649,-0.01364584,0.03406727,0.03285686,0.03201181,0.02345929,-0.00341434,-12.16595459,0.02274244,-0.00542505,0.01156234,0.04431503,0.01328784,0.05516383,0.05801059,0.02720530,-0.02289777,0.00404699,0.01395279,0.01559653,-0.01826108,0.01033680,0.02519374,0.00895750,0.04509896,0.02717358,-0.03009447,-0.00417966,0.04186993,0.03477322,-0.02741131,-0.01667972,0.02701714,-0.02030112,0.03629239,0.04812051,-0.04896330,-0.01850477,0.01335970,0.03648348,0.01592194,-0.03887323,0.00473636,0.03092387,0.01815504,0.04557976,0.00568199,-0.03816786,-0.00605960,0, 00:00:00.2
4,-7.57921171,0.01732747,0.01822129,0.00848047,-0.00121659,0.03140636,0.03284233,0.03151116,0.02147567,-0.00570891,-11.67629910,0.02099657,-0.00751950,0.00834130,0.03376281,0.00975504,0.05393308,0.05667208,0.02597445,-0.02563497,0.00075525,0.01347174,0.01488695,-0.02062515,0.00743330,0.02079344,0.00477608,0.04325473,0.02350617,-0.03083507,-0.00364980,0.04001113,0.03396888,-0.02737722,-0.02025526,0.02513273,-0.02408725,0.03196365,0.04742728,-0.05156873,-0.01983565,0.01540747,0.03585574,0.01388151,-0.04276567,0.00229900,0.02816371,0.01471773,0.04405083,0.00509513,-0.04164382,-0.00796890,0, 00:00:00.3
5,-7.27710724,0.01593975,0.01771973,0.00777560,0.02234336,0.03168840,0.03152815,0.03242100,0.02109063,-0.00566845,-11.97014904,0.02003139,-0.00856763,0.00602407,0.01957758,0.00844425,0.05425929,0.05658454,0.02619272,-0.02631038,0.00143165,0.01480783,0.01666296,-0.02115938,0.00700845,0.01914248,0.00217643,0.04291108,0.02162660,-0.03061441,-0.00277932,0.04052604,0.03468863,-0.02660544,-0.02172804,0.02495525,-0.02533955,0.03004150,0.04943156,-0.05148669,-0.02067266,0.01702872,0.03611690,0.01464159,-0.04462284,0.00169493,0.02754069,0.01343854,0.04619012,0.00745263,-0.04291112,-0.00790743,0, 00:00:00.4
6,-7.00446320,0.01463078,0.01691910,0.00612055,0.00973720,0.03147794,0.03049256,0.03204867,0.02015473,-0.00632680,-11.57781792,0.01883515,-0.00952883,0.00438770,0.02084636,0.00746567,0.04951578,0.05561107,0.02519619,-0.02706717,0.00148469,0.01555143,0.01613892,-0.02328618,0.00648966,0.01776338,0.00050768,0.04224476,0.01975805,-0.03018801,-0.00271862,0.03847003,0.03389602,-0.02586187,-0.02285609,0.02476592,-0.02547155,0.02853982,0.04997334,-0.05185892,-0.02170079,0.01482971,0.03593142,0.01395313,-0.04597601,0.00097564,0.02684137,0.01276530,0.04677581,0.00831282,-0.04392779,-0.00804134,0, 00:00:00.5
7,-7.43965292,0.01358649,0.01550335,0.00498488,0.00306746,0.02962318,0.03044677,0.03096894,0.01872111,-0.00741038,-11.85396671,0.01748168,-0.01052120,0.00265966,0.03803458,0.00638967,0.04935914,0.05396667,0.02361198,-0.02794418,0.00077782,0.01009197,0.01389604,-0.02510328,0.00548254,0.01575084,-0.00076525,0.04130920,0.01767832,-0.03106141,-0.00276020,0.03861294,0.03193829,-0.02555149,-0.02440608,0.02409513,-0.02520481,0.02720901,0.04931248,-0.05286685,-0.02231143,0.01176482,0.03535592,0.01282859,-0.04720797,-0.00025897,0.02606141,0.01231754,0.04570589,0.00789997,-0.04483726,-0.00848450,0, 00:00:00.6
8,-7.17500877,0.01212202,0.01387086,0.00444163,0.01370458,0.02912504,0.02917214,0.02907529,0.01661204,-0.00914018,-12.09814453,0.01580993,-0.01149917,0.00085860,0.05757429,0.00504498,0.04721660,0.05158922,0.02087781,-0.02900097,-0.00080867,0.01009558,0.01352081,-0.02572156,0.00413796,0.01340589,-0.00225752,0.03976968,0.01519642,-0.03206180,-0.00373207,0.03780366,0.02991875,-0.02582447,-0.02624850,0.02275527,-0.02549432,0.02580798,0.04716939,-0.05446294,-0.02313649,0.00775361,0.03392750,0.01135691,-0.04886052,-0.00141921,0.02488865,0.01107142,0.04307995,0.00603285,-0.04640739,-0.00992035,0, 00:00:00.7
9,-7.02563429,0.01045400,0.01216198,0.00489346,0.01864319,0.02708351,0.02796596,0.02654279,0.01394476,-0.01074119,-12.33733940,0.01438071,-0.01281185,-0.00124958,0.04471352,0.00331134,0.04347040,0.04848799,0.01724651,-0.03060129,-0.00236491,0.00808529,0.01317756,-0.02639891,0.00238696,0.01053727,-0.00407185,0.03759538,0.01227831,-0.03345039,-0.00551692,0.03597898,0.02786851,-0.02655647,-0.02871356,0.02073837,-0.02661500,0.02352438,0.04375877,-0.05690300,-0.02444807,0.00504502,0.03184502,0.00948406,-0.05085373,-0.00283167,0.02299045,0.00886597,0.03902579,0.00295147,-0.04819101,-0.01300067,0, 00:00:00.8
10,-7.41872787,0.00908975,0.01047673,0.00531435,0.02192458,0.02520259,0.02601396,0.02413467,0.01144741,-0.01271677,-11.94233322,0.01266801,-0.01408556,-0.00366348,0.04473374,0.00154665,0.04067997,0.04523351,0.01403091,-0.03218239,-0.00389395,0.00505617,0.01066964,-0.02841499,0.00065411,0.00750678,-0.00625569,0.03502419,0.00927069,-0.03565883,-0.00663208,0.03264774,0.02562174,-0.02735817,-0.03090329,0.01869107,-0.02829861,0.02061753,0.04028395,-0.05932286,-0.02615621,0.00562183,0.03007036,0.00716289,-0.05232801,-0.00468308,0.02071612,0.00615957,0.03473432,-0.00021548,-0.04978955,-0.01465525,0, 00:00:00.9
11,-7.14936209,0.00787329,0.00964257,0.00514094,0.03537432,0.02498438,0.02320341,0.02444660,0.01125771,-0.01287101,-12.17436886,0.01183649,-0.01403711,-0.00494703,0.05059685,0.00097941,0.03925781,0.04445149,0.01445520,-0.03200499,-0.00310917,0.00266235,0.00795276,-0.02927863,0.00035101,0.00641487,-0.00714680,0.03394817,0.00795046,-0.03516560,-0.00703279,0.03124270,0.02546784,-0.02682304,-0.03110250,0.01819259,-0.02813434,0.01982245,0.04033045,-0.05844053,-0.02646399,0.00939536,0.02990929,0.00698445,-0.05184483,-0.00485188,0.02026607,0.00568019,0.03472675,0.00090777,-0.04912701,-0.01325967,0, 00:00:01.0
12,-6.97057009,0.00742779,0.00967422,0.00346680,0.03354453,0.02487849,0.02266152,0.02633027,0.01253405,-0.01142590,-12.39194584,0.01179442,-0.01299557,-0.00481336,0.03057632,0.00183088,0.03777681,0.04516777,0.01662784,-0.03032187,-0.00241167,0.00348670,0.01001104,-0.02846276,0.00124177,0.00636963,-0.00650465,0.03408302,0.00815536,-0.03325011,-0.00654160,0.02998669,0.02623645,-0.02527759,-0.02951072,0.01910459,-0.02599113,0.02071407,0.04249189,-0.05529821,-0.02501312,0.00944485,0.03045936,0.00866747,-0.04971303,-0.00350123,0.02133964,0.00713615,0.03743216,0.00435697,-0.04660982,-0.01104564,0, 00:00:01.1
13,-6.86689711,0.00795859,0.00963574,0.00304104,0.03041092,0.02559466,0.02174833,0.02722415,0.01331011,-0.01001321,-12.60278034,0.01177169,-0.01182831,-0.00428959,0.01386072,0.00327478,0.03727810,0.04494812,0.01808487,-0.02836056,-0.00083335,0.00633109,0.01271617,-0.02696623,0.00219060,0.00680600,-0.00553364,0.03410238,0.00841927,-0.03087682,-0.00538629,0.03039267,0.02524203,-0.02384162,-0.02769752,0.01997175,-0.02353224,0.02202967,0.04370455,-0.05250147,-0.02337710,0.00947775,0.03090230,0.00990220,-0.04705457,-0.00211769,0.02227908,0.00868345,0.03903310,0.00682872,-0.04389864,-0.00848816,0, 00:00:01.2
14,-6.65085554,0.00765103,0.00949823,0.00419551,0.02547307,0.02729253,0.02085547,0.02726400,0.01353712,-0.00886324,-12.80606651,0.01141315,-0.01095562,-0.00409093,0.01217221,0.00470653,0.03714520,0.04411347,0.01840504,-0.02688240,0.00025096,0.00632287,0.01340974,-0.02606165,0.00300107,0.00705725,-0.00444637,0.03364678,0.00854480,-0.02856558,-0.00453010,0.03028043,0.02494269,-0.02280323,-0.02605639,0.02055819,-0.02110369,0.02294839,0.04369247,-0.05026826,-0.02167309,0.00828766,0.03084648,0.01170590,-0.04442282,-0.00100990,0.02270981,0.00970585,0.03925522,0.00805121,-0.04134919,-0.00721141,0, 00:00:01.3
15,-6.48089504,0.00673534,0.00910050,0.00555626,0.02104400,0.02680600,0.01951380,0.02640637,0.01313040,-0.00846792,-12.99019718,0.01081475,-0.01023808,-0.00390118,0.00765862,0.00593491,0.03665028,0.04259348,0.01758997,-0.02589423,0.00132210,0.00469903,0.01222304,-0.02535211,0.00313561,0.00753907,-0.00341643,0.03256342,0.00819557,-0.02732843,-0.00478367,0.02753841,0.02406145,-0.02184305,-0.02493984,0.02065654,-0.01900903,0.02309229,0.04217766,-0.04907616,-0.02042588,0.00643054,0.03005464,0.01268690,-0.04193465,-0.00041753,0.02255580,0.01013230,0.03768666,0.00773793,-0.03956177,-0.00579848,0, 00:00:01.4
16,-6.31088686,0.00617110,0.00823031,0.00674513,0.01234243,0.02445643,0.01640817,0.02485362,0.01215804,-0.00863154,-12.67342567,0.01023960,-0.00984754,-0.00391076,0.00828725,0.00645138,0.03499812,0.04045276,0.01591448,-0.02544354,-0.00115155,0.00422894,0.01109180,-0.02546823,0.00302132,0.00768214,-0.00250809,0.03077777,0.00732039,-0.02685718,-0.00512190,0.02510285,0.02321229,-0.02132632,-0.02401837,0.02004846,-0.01754291,0.02251352,0.03935727,-0.04882994,-0.01970628,0.00349275,0.02881711,0.01207794,-0.04004733,-0.00044567,0.02166063,0.00968205,0.03443224,0.00594538,-0.03835370,-0.00524627,0, 00:00:01.5
17,-6.16831350,0.00508054,0.00744317,0.00619877,0.01040214,0.02416066,0.01376618,0.02363246,0.01129244,-0.00864048,-12.85858631,0.00930730,-0.00968712,-0.00388170,-0.00545811,0.00657865,0.03332837,0.03840056,0.01439797,-0.02492096,-0.00234272,0.00355737,0.00977821,-0.02447266,0.00275953,0.00741260,-0.00190694,0.02884153,0.00643611,-0.02660768,-0.00526024,0.02351170,0.02178666,-0.02084769,-0.02294827,0.01922210,-0.01612595,0.02160216,0.03630442,-0.04866788,-0.01901845,0.00015739,0.02738800,0.01182240,-0.03834041,-0.00073286,0.02049681,0.00904192,0.03104718,0.00402338,-0.03727876,-0.00446458,0, 00:00:01.6
18,-5.94636583,0.00484459,0.00784331,0.00718698,0.01133044,0.02346103,0.01399383,0.02495760,0.01244171,-0.00723938,-13.03687763,0.00922288,-0.00852950,-0.00298403,0.00244369,0.00787865,0.03281593,0.03840699,0.01644874,-0.02293643,-0.00066528,0.00287841,0.01128886,-0.02207275,0.00350728,0.00831627,-0.00069436,0.02815024,0.00700989,-0.02461653,-0.00493329,0.02241858,0.02236549,-0.01912392,-0.02075355,0.01991633,-0.01362988,0.02214615,0.03669663,-0.04568743,-0.01713287,0.00127113,0.02768094,0.01360098,-0.03520520,0.00046858,0.02102563,0.00989625,0.03182435,0.00611549,-0.03412851,-0.00234153,0, 00:00:01.7
19,-5.85477304,0.00530837,0.00923182,0.00740327,0.02459780,0.02224015,0.01473813,0.02745755,0.01472654,-0.00458581,-12.68473148,0.00985391,-0.00650584,-0.00090769,-0.00548848,0.01042560,0.03218740,0.03974305,0.01981020,-0.01956445,0.00101023,0.00053000,0.01189093,-0.01914358,0.00557179,0.01033520,0.00140121,0.02845739,0.00893583,-0.02120012,-0.00274081,0.02200970,0.02346533,-0.01655542,-0.01768084,0.02178465,-0.00980327,0.02438149,0.03905621,-0.04086681,-0.01394617,0.00394318,0.02884757,0.01596550,-0.03069951,0.00302052,0.02298848,0.01225248,0.03493567,0.01015343,-0.02973065,0.00168421,0, 00:00:01.8
20,-6.18307686,0.00593906,0.01044127,0.00933418,0.02494420,0.02150678,0.01452317,0.02889722,0.01655307,-0.00188596,-12.85138130,0.01041060,-0.00448311,0.00126854,-0.00558728,0.01313717,0.03074315,0.04024400,0.02219661,-0.01643387,0.00303461,-0.00009621,0.01538524,-0.01636952,0.00779301,0.01301857,0.00386031,0.02872257,0.01095441,-0.01784293,-0.00111825,0.02279272,0.02412037,-0.01409636,-0.01420235,0.02350777,-0.00593944,0.02661645,0.04041103,-0.03639382,-0.01079401,0.00692501,0.02991602,0.01769046,-0.02631667,0.00559422,0.02485955,0.01463400,0.03690687,0.01314254,-0.02553417,0.00598213,0, 00:00:01.9
21,-6.03176785,0.00671981,0.01137441,0.01120148,0.03112020,0.02124135,0.01380502,0.02961474,0.01791324,0.00028526,-13.00847626,0.01107335,-0.00264658,0.00334490,-0.00699618,0.01556101,0.03084651,0.04025063,0.02394120,-0.01364280,0.00463282,0.00383327,0.01942563,-0.01374939,0.00969703,0.01557642,0.00646701,0.02866815,0.01279250,-0.01456357,0.00068374,0.02264141,0.02409140,-0.01180590,-0.01093211,0.02487773,-0.00254683,0.02831781,0.04090729,-0.03263102,-0.00815801,0.00839218,0.03045314,0.01922209,-0.02211466,0.00789365,0.02643795,0.01658814,0.03776467,0.01498967,-0.02170275,0.00969042,0, 00:00:02.0
22,-5.88019562,0.00716342,0.01212947,0.01233899,0.03159506,0.02161231,0.01395683,0.02983492,0.01879681,0.00143226,-13.16138268,0.01151223,-0.00105902,0.00558188,-0.02034486,0.01766735,0.03018689,0.03990449,0.02497683,-0.01132220,0.00571045,0.00544456,0.02001254,-0.01157238,0.01141753,0.01772782,0.00872172,0.02808668,0.01438031,-0.01186853,0.00253720,0.02339230,0.02397060,-0.00978966,-0.00782259,0.02587900,0.00057096,0.02942719,0.04051236,-0.02952660,-0.00569031,0.01349374,0.03040648,0.02066061,-0.01824372,0.00977310,0.02761672,0.01808894,0.03746407,0.01571585,-0.01846778,0.01242804,0, 00:00:02.1
23,-5.77408457,0.00753382,0.01284156,0.01337731,0.02069823,0.02052713,0.01402952,0.03005782,0.01962879,0.00256372,-13.30788040,0.01180151,0.00032281,0.00759520,-0.02702557,0.01946131,0.03025670,0.03953192,0.02604630,-0.00910361,0.00752205,0.00531839,0.02082461,-0.00942819,0.01253760,0.01965263,0.01068383,0.02745531,0.01588167,-0.00970256,0.00423931,0.02471538,0.02414593,-0.00801545,-0.00474420,0.02668318,0.00355339,0.03042088,0.03994722,-0.02670865,-0.00340698,0.01386541,0.03032782,0.02200262,-0.01461615,0.01142201,0.02859884,0.01930509,0.03686145,0.01621614,-0.01531980,0.01464500,0, 00:00:02.2
24,-5.70413876,0.00779730,0.01336434,0.01357231,0.02310678,0.01913638,0.01380181,0.02960834,0.02002575,0.00327680,-13.45324421,0.01192024,0.00144491,0.00932556,-0.01384220,0.02062022,0.02935489,0.03856173,0.02629960,-0.00730762,0.00727491,0.00792389,0.02135814,-0.00691684,0.01347100,0.02120141,0.01231483,0.02641292,0.01691299,-0.00842634,0.00491349,0.02495520,0.02340548,-0.00661849,-0.00215201,0.02694087,0.00600375,0.03065531,0.03862268,-0.02482263,-0.00166838,0.01095468,0.02979615,0.02318572,-0.01141581,0.01253128,0.02902886,0.02001278,0.03528070,0.01570935,-0.01270071,0.01634340,0, 00:00:02.3
25,-5.58632565,0.00752043,0.01355175,0.01264557,0.02630742,0.01809204,0.01400991,0.02882738,0.01998246,0.00380996,-13.21088314,0.01194802,0.00227291,0.01052098,-0.00776343,0.02143586,0.02761279,0.03730505,0.02615559,-0.00600053,0.00831194,0.00996213,0.02147801,-0.00488219,0.01394698,0.02230873,0.01343218,0.02502467,0.01757469,-0.00774875,0.00502292,0.02432268,0.02248807,-0.00565487,-0.00027756,0.02673242,0.00788506,0.03015012,0.03658920,-0.02357921,-0.00029787,0.01031095,0.02877472,0.02444606,-0.00880706,0.01322133,0.02892350,0.02013536,0.03281032,0.01446644,-0.01074654,0.01778983,0, 00:00:02.4
26,-5.49341774,0.00739909,0.01338058,0.01250382,0.01943264,0.01650681,0.01343920,0.02749304,0.01944518,0.00382253,-13.35178852,0.01174735,0.00294011,0.01139779,-0.01329248,0.02186323,0.02695895,0.03576161,0.02510416,-0.00509978,0.00798487,0.01071098,0.02106574,-0.00399467,0.01392930,0.02289907,0.01421382,0.02321986,0.01771390,-0.00733244,0.00414803,0.02472270,0.02080231,-0.00491247,0.00122620,0.02595676,0.00932831,0.02896793,0.03391140,-0.02321478,0.00068360,0.00845444,0.02739584,0.02457492,-0.00675772,0.01352889,0.02830099,0.01955009,0.02941000,0.01231527,-0.00962178,0.01841542,0, 00:00:02.5
27,-5.52355576,0.00595738,0.01252567,0.01184119,0.02139598,0.01513346,0.01060573,0.02343746,0.01681967,0.00250988,-13.12607765,0.01036230,0.00315546,0.01107853,-0.02063731,0.02137713,0.02613346,0.03186151,0.02107144,-0.00435807,0.00812508,0.01184247,0.02050550,-0.00231141,0.01372091,0.02327370,0.01507334,0.02099431,0.01704924,-0.00543318,0.00389142,0.02406802,0.01804244,-0.00324375,0.00247449,0.02444619,0.01017943,0.02800589,0.02813532,-0.02266134,0.00223746,0.00463300,0.02532537,0.02413711,-0.00439792,0.01325265,0.02647002,0.01850173,0.02240689,0.00741721,-0.00818805,0.01849975,0, 00:00:02.6
28,-5.50639772,0.00378973,0.01105986,0.01018702,0.01961784,0.01280277,0.00894077,0.01931882,0.01383242,0.00104748,-13.11739922,0.00864288,0.00303798,0.01026682,-0.00581118,0.02008848,0.02331435,0.02757868,0.01675043,-0.00410865,0.00627849,0.01088007,0.01955723,-0.00150676,0.01250987,0.02267109,0.01522958,0.01814243,0.01561001,-0.00445362,0.00297660,0.02224154,0.01594850,-0.00200571,0.00312349,0.02231845,0.01031908,0.02586110,0.02186827,-0.02317129,0.00310553,-0.00012292,0.02297704,0.02288804,-0.00268207,0.01227282,0.02379548,0.01658930,0.01461927,0.00201291,-0.00756634,0.01840631,0, 00:00:02.7
29,-5.08620024,0.00150012,0.00942328,0.00818219,0.01689236,0.01042654,0.00701449,0.01508038,0.01057403,-0.00073026,-12.69058132,0.00672722,0.00255335,0.00946022,-0.01020477,0.01851933,0.02052167,0.02318474,0.01206334,-0.00433243,0.00464527,0.00838405,0.01933483,-0.00083382,0.01057138,0.02157614,0.01474171,0.01493581,0.01357168,-0.00475312,0.00216965,0.01932927,0.01338205,-0.00102089,0.00323581,0.01972098,0.01021412,0.02252850,0.01556021,-0.02443714,0.00381368,-0.00588095,0.02042324,0.02209259,-0.00152409,0.01070340,0.02056264,0.01421911,0.00630368,-0.00374708,-0.00757727,0.01871958,0, 00:00:02.8
30,-4.79862356,-0.00013989,0.00780022,0.00571524,0.01158033,0.00746558,0.00393923,0.01117052,0.00735696,-0.00244726,-12.70554543,0.00484593,0.00207879,0.00830969,-0.00581461,0.01671593,0.01643349,0.01879790,0.00762760,-0.00499450,0.00215207,0.00553483,0.01846279,-0.00074644,0.00837332,0.02039637,0.01402341,0.01146648,0.01122922,-0.00534636,0.00072692,0.01768514,0.01117764,-0.00056486,0.00293782,0.01660714,0.00992941,0.01892136,0.00952851,-0.02610005,0.00417939,-0.01088070,0.01725062,0.02067658,-0.00089682,0.00881423,0.01706626,0.01147055,-0.00188868,-0.00927903,-0.00792550,0.01824623,0, 00:00:02.9
31,-4.43360996,-0.00151408,0.00635288,0.00436772,0.00600438,0.00566350,0.00221125,0.00848137,0.00506254,-0.00344920,-12.70760059,0.00335441,0.00174139,0.00748578,-0.00776134,0.01490848,0.01329078,0.01553679,0.00494477,-0.00514507,0.00034962,0.00229266,0.01665141,-0.00014734,0.00650383,0.01889280,0.01290613,0.00844038,0.00927139,-0.00567031,0.00003957,0.01694385,0.00803995,0.00013109,0.00301303,0.01413197,0.00929039,0.01549968,0.00486328,-0.02673407,0.00452645,-0.01178877,0.01541271,0.01987862,0.00013267,0.00738997,0.01421443,0.00886948,-0.00803784,-0.01308787,-0.00769991,0.01873517,0, 00:00:03.0
32,-4.41878033,-0.00215251,0.00622964,0.00609988,0.00243532,0.00703299,0.00182323,0.00859886,0.00519657,-0.00227810,-12.23218822,0.00293426,0.00231203,0.00785076,-0.00461355,0.01412500,0.00948220,0.01472440,0.00556380,-0.00392518,0.00041057,0.00533451,0.01748347,0.00165651,0.00629727,0.01842286,0.01225173,0.00717086,0.00911007,-0.00377156,0.00135104,0.01670012,0.00557371,0.00194177,0.00434232,0.01350229,0.00965959,0.01400452,0.00445759,-0.02454684,0.00614146,-0.01236737,0.01522118,0.02074228,0.00202341,0.00774605,0.01356663,0.00805490,-0.00866902,-0.01231148,-0.00541063,0.02160740,0, 00:00:03.1
33,-4.40960884,-0.00293188,0.00607136,0.00721162,0.01577908,0.00525737,0.00230630,0.00748271,0.00456162,-0.00209611,-12.23554039,0.00250182,0.00256844,0.00803783,-0.01975320,0.01342164,0.00920079,0.01303602,0.00458917,-0.00308891,0.00103916,0.00627872,0.01604313,0.00289019,0.00598289,0.01782651,0.01183467,0.00577203,0.00873794,-0.00253274,0.00141761,0.01686090,0.00419176,0.00316994,0.00541259,0.01264441,0.01002742,0.01238701,0.00337430,-0.02351184,0.00708869,-0.01548564,0.01425566,0.02054357,0.00339394,0.00775362,0.01272327,0.00693636,-0.01032585,-0.01299142,-0.00405335,0.02289857,0, 00:00:03.2
34,-4.84772491,-0.00430984,0.00487493,0.00701688,0.02802925,0.00048852,0.00203858,0.00463425,0.00260027,-0.00327482,-12.69330978,0.00133757,0.00216330,0.00744287,-0.01727431,0.01195502,0.00640741,0.00959499,0.00177980,-0.00324626,-0.00147683,0.00050635,0.01614475,0.00309310,0.00469197,0.01613955,0.01098915,0.00303124,0.00709791,-0.00303042,0.00038967,0.01512721,0.00294765,0.00336125,0.00615178,0.01057643,0.00925737,0.00923380,-0.00005308,-0.02440868,0.00699138,-0.01634565,0.01210161,0.01879354,0.00376135,0.00645814,0.01054323,0.00468095,-0.01493901,-0.01628049,-0.00428287,0.02217031,0, 00:00:03.3
35,-5.24982405,-0.00573576,0.00401023,0.00562269,0.01816890,-0.00316573,0.00077290,0.00225081,0.00081665,-0.00448871,-12.69375229,-0.00009142,0.00172118,0.00669369,-0.01636994,0.01000233,0.00402789,0.00640001,-0.00087139,-0.00366589,-0.00198820,0.00090357,0.01275102,0.00277102,0.00335204,0.01418790,0.00953868,0.00001498,0.00511397,-0.00442605,-0.00219457,0.01272234,0.00074788,0.00313761,0.00654390,0.00858964,0.00830234,0.00574577,-0.00346462,-0.02558320,0.00658825,-0.01798769,0.00957385,0.01704018,0.00373587,0.00489123,0.00802245,0.00192605,-0.01962313,-0.01966039,-0.00505753,0.02042036,0, 00:00:03.4
36,-5.61757278,-0.00699700,0.00313084,0.00612975,0.00841862,-0.00545580,-0.00164487,-0.00003904,-0.00085516,-0.00613577,-12.69166183,-0.00127866,0.00097462,0.00541491,-0.01720016,0.00811827,0.00197758,0.00306049,-0.00394529,-0.00417346,-0.00365947,0.00133210,0.01249932,0.00267249,0.00165560,0.01166146,0.00769860,-0.00311175,0.00295560,-0.00592673,-0.00430346,0.01291455,-0.00146781,0.00275314,0.00647382,0.00632064,0.00691503,0.00197358,-0.00699651,-0.02712311,0.00602096,-0.01608931,0.00736523,0.01507257,0.00345308,0.00308882,0.00524852,-0.00114302,-0.02439459,-0.02315802,-0.00588657,0.01893246,0, 00:00:03.5
37,-5.62425947,-0.00819803,0.00225532,0.00528939,0.00383737,-0.00569503,-0.00352268,-0.00219130,-0.00254959,-0.00734525,-12.69332314,-0.00277110,0.00003972,0.00431626,-0.01399257,0.00622638,-0.00118362,-0.00005834,-0.00667559,-0.00468377,-0.00679864,-0.00271878,0.00980521,0.00219003,-0.00021709,0.00939426,0.00571090,-0.00616046,0.00078974,-0.00664197,-0.00500699,0.01030476,-0.00374436,0.00279586,0.00605550,0.00408214,0.00516214,-0.00204682,-0.01024430,-0.02898779,0.00631010,-0.01904753,0.00508089,0.01211135,0.00286409,0.00099393,0.00257576,-0.00443427,-0.02888879,-0.02663002,-0.00705129,0.01815310,0, 00:00:03.6
38,-5.21688366,-0.00827937,0.00149803,0.00418382,-0.00308785,-0.00677909,-0.00747915,-0.00346802,-0.00373623,-0.00787858,-12.69597626,-0.00446744,-0.00107141,0.00342348,-0.00592418,0.00483380,-0.00181126,-0.00261254,-0.00809316,-0.00474423,-0.00770595,-0.00299980,0.00929510,0.00098269,-0.00191867,0.00708620,0.00363480,-0.00891257,-0.00117935,-0.00473943,-0.00235253,0.00769686,-0.00472199,0.00516049,0.00599952,0.00205579,0.00371166,-0.00554138,-0.01245573,-0.02925472,0.00792149,-0.01780907,0.00428257,0.01026248,0.00137579,-0.00054010,0.00054920,-0.00726652,-0.03189279,-0.02866100,-0.00820063,0.01883748,0, 00:00:03.7
39,-5.65762281,-0.00845863,0.00099305,0.00438849,-0.00483479,-0.00894570,-0.01038434,-0.00337085,-0.00375695,-0.00731578,-13.16176510,-0.00533789,-0.00135453,0.00351429,-0.00172164,0.00420017,-0.00270222,-0.00363611,-0.00792236,-0.00406767,-0.00835422,-0.00342392,0.00974038,0.00142233,-0.00264049,0.00534244,0.00204218,-0.01030892,-0.00205339,-0.00186000,0.00052775,0.00628731,-0.00447556,0.00769502,0.00639549,0.00137042,0.00296430,-0.00783182,-0.01229268,-0.02728668,0.00961387,-0.01798721,0.00442168,0.00907623,0.00088222,-0.00044540,-0.00020795,-0.00897062,-0.03190469,-0.02772700,-0.00816035,0.02063738,0, 00:00:03.8
40,-5.65539217,-0.00854646,0.00011974,0.00500747,0.00543041,-0.00956348,-0.01291027,-0.00498656,-0.00496216,-0.00782168,-13.16223049,-0.00627666,-0.00184814,0.00311271,-0.00039154,0.00329883,-0.00552192,-0.00614545,-0.00969011,-0.00415263,-0.00820331,-0.00448245,0.01084764,0.00200630,-0.00382635,0.00325760,0.00056331,-0.01227463,-0.00343945,-0.00037027,0.00240921,0.00364245,-0.00506915,0.00884575,0.00621015,-0.00007119,0.00174337,-0.01109188,-0.01396865,-0.02669556,0.01027703,-0.01864766,0.00332401,0.00725597,0.00027046,-0.00111094,-0.00174168,-0.01128174,-0.03409425,-0.02908191,-0.00879363,0.02014936,0, 00:00:03.9
41,-5.66305780,-0.00985724,-0.00145340,0.00513071,-0.00009500,-0.01050629,-0.01434098,-0.00803136,-0.00702789,-0.00932204,-13.16452312,-0.00807061,-0.00291429,0.00155703,0.00070923,0.00170301,-0.00862809,-0.00999518,-0.01275608,-0.00512062,-0.01097825,-0.00840712,0.00808534,0.00020821,-0.00613871,0.00060036,-0.00119961,-0.01557691,-0.00584649,-0.00138003,0.00238600,0.00049115,-0.00675537,0.00900823,0.00515466,-0.00287538,-0.00061800,-0.01568320,-0.01789804,-0.02794463,0.00935384,-0.01824185,0.00096407,0.00547741,-0.00105045,-0.00313405,-0.00450551,-0.01524502,-0.03873407,-0.03265920,-0.01025707,0.01808018,0, 00:00:04.0
42,-6.09296131,-0.01107551,-0.00305640,0.00377427,0.02437372,-0.01165585,-0.01618858,-0.01062722,-0.00889592,-0.01114572,-12.72611332,-0.00967492,-0.00417065,0.00005367,0.00109099,-0.00000333,-0.01183924,-0.01355641,-0.01587724,-0.00617937,-0.01424813,-0.01004241,0.00784339,-0.00136043,-0.00847760,-0.00168330,-0.00302390,-0.01905737,-0.00844967,-0.00262619,0.00118305,-0.00148474,-0.00843757,0.00897680,0.00384457,-0.00597065,-0.00287859,-0.01995590,-0.02181777,-0.02931332,0.00842390,-0.01835451,-0.00147243,0.00330189,-0.00230994,-0.00549120,-0.00754241,-0.01946840,-0.04334040,-0.03626940,-0.01211625,0.01553901,0, 00:00:04.1
43,-6.02657700,-0.01271186,-0.00475396,0.00510470,0.03139978,-0.01345805,-0.01856389,-0.01334549,-0.01101544,-0.01273715,-12.23842812,-0.01122913,-0.00567462,-0.00178121,-0.00579866,-0.00191909,-0.01581624,-0.01718124,-0.01928376,-0.00740445,-0.01677120,-0.01258427,0.00609080,-0.00200151,-0.01102626,-0.00475075,-0.00495832,-0.02253692,-0.01125039,-0.00395186,0.00159590,-0.00393440,-0.01142498,0.00877532,0.00249652,-0.00926348,-0.00483348,-0.02439174,-0.02594429,-0.03118813,0.00742657,-0.01782178,-0.00428835,0.00010590,-0.00386152,-0.00808885,-0.01082368,-0.02345772,-0.04826459,-0.04012190,-0.01413158,0.01268692,0, 00:00:04.2
44,-5.84147596,-0.01413178,-0.00637769,0.00378381,0.04834725,-0.01607397,-0.01921842,-0.01593002,-0.01316304,-0.01410311,-12.24634933,-0.01301218,-0.00718891,-0.00364475,-0.01182788,-0.00406428,-0.01968664,-0.02079456,-0.02253722,-0.00871575,-0.01940362,-0.01319306,0.00448811,-0.00325656,-0.01364093,-0.00806682,-0.00721715,-0.02598523,-0.01404246,-0.00481339,0.00114883,-0.00654584,-0.01381548,0.00831296,0.00081731,-0.01248031,-0.00708782,-0.02921185,-0.03013067,-0.03307925,0.00610166,-0.02111640,-0.00715581,-0.00339596,-0.00526544,-0.01065598,-0.01411387,-0.02733562,-0.05272674,-0.04358452,-0.01599649,0.01042642,0, 00:00:04.3
45,-5.80351114,-0.01458816,-0.00770581,0.00282772,0.03919027,-0.01721764,-0.02029650,-0.01740260,-0.01454424,-0.01505542,-12.67485714,-0.01431973,-0.00808067,-0.00472281,-0.01290825,-0.00582048,-0.02374712,-0.02358088,-0.02440558,-0.00946999,-0.02134462,-0.01294573,0.00442720,-0.00374587,-0.01578556,-0.01108423,-0.00944250,-0.02885502,-0.01633021,-0.00532641,0.00111609,-0.00878742,-0.01553236,0.00818630,-0.00058817,-0.01520907,-0.00921877,-0.03320055,-0.03283175,-0.03364326,0.00545487,-0.02195910,-0.00935177,-0.00515108,-0.00631046,-0.01254799,-0.01660100,-0.03048196,-0.05528731,-0.04511155,-0.01714941,0.00947861,0, 00:00:04.4
46,-5.37087297,-0.01371625,-0.00798100,0.00332195,0.02577418,-0.01742086,-0.01933470,-0.01618369,-0.01393997,-0.01447930,-12.67773438,-0.01459254,-0.00780380,-0.00525634,-0.01088567,-0.00642575,-0.02458392,-0.02383188,-0.02313562,-0.00857618,-0.01942067,-0.01284211,0.00488651,-0.00252944,-0.01598466,-0.01235166,-0.01070116,-0.02955306,-0.01670707,-0.00350221,0.00233640,-0.00893922,-0.01606523,0.00942260,-0.00005021,-0.01578361,-0.01011980,-0.03469654,-0.03169252,-0.03062021,0.00657325,-0.01672446,-0.00977265,-0.00528970,-0.00583820,-0.01248678,-0.01667332,-0.03151108,-0.05288788,-0.04211035,-0.01590670,0.01022584,0, 00:00:04.5
47,-5.32494402,-0.01283712,-0.00748088,0.00284584,0.02763953,-0.01777460,-0.01734127,-0.01421274,-0.01250804,-0.01267095,-12.67667103,-0.01384999,-0.00670823,-0.00472590,-0.01445716,-0.00610294,-0.02317948,-0.02304638,-0.02037804,-0.00660264,-0.01775684,-0.01359635,0.00801611,-0.00087826,-0.01518031,-0.01257271,-0.01093555,-0.02903938,-0.01581288,-0.00015590,0.00550051,-0.00712525,-0.01516826,0.01176296,0.00125198,-0.01494649,-0.01007926,-0.03423792,-0.02890731,-0.02543034,0.00854760,-0.01248453,-0.00915341,-0.00420378,-0.00397207,-0.01110904,-0.01516487,-0.03063771,-0.04809063,-0.03713390,-0.01305331,0.01133483,0, 00:00:04.6
48,-5.34529734,-0.01171217,-0.00687390,0.00434701,0.01475496,-0.01609100,-0.01608043,-0.01256446,-0.01089842,-0.01074903,-13.10701847,-0.01313638,-0.00531454,-0.00370351,-0.01034897,-0.00515919,-0.02136863,-0.02209764,-0.01759616,-0.00397399,-0.01520924,-0.01158669,0.00772732,0.00095561,-0.01389477,-0.01235671,-0.01048003,-0.02806927,-0.01440740,0.00347609,0.00851458,-0.00715389,-0.01347471,0.01399025,0.00309019,-0.01382042,-0.00916446,-0.03277258,-0.02608840,-0.01905535,0.01073416,-0.00975683,-0.00838759,-0.00299637,-0.00150137,-0.00932621,-0.01311674,-0.02852556,-0.04293869,-0.03190499,-0.00960683,0.01303982,0, 00:00:04.7
49,-5.29061127,-0.01050759,-0.00586465,0.00438191,0.01311817,-0.01555299,-0.01428732,-0.01068101,-0.00899212,-0.00835911,-13.10747719,-0.01180850,-0.00313999,-0.00232826,-0.02243849,-0.00391422,-0.01852792,-0.02098529,-0.01436377,-0.00099384,-0.01201583,-0.00916987,0.00745751,0.00351853,-0.01200440,-0.01157870,-0.00944503,-0.02657224,-0.01244441,0.00665773,0.01205675,-0.00524258,-0.01229259,0.01492526,0.00529620,-0.01225489,-0.00744929,-0.03054982,-0.02308590,-0.01242738,0.01168546,-0.00405721,-0.00737898,-0.00083031,0.00203986,-0.00680225,-0.01057047,-0.02563859,-0.03733043,-0.02624417,-0.00485931,0.01486546,0, 00:00:04.8
50,-5.34849787,-0.00919690,-0.00465798,0.00588065,0.01671191,-0.01458129,-0.01375687,-0.00847004,-0.00671929,-0.00593881,-13.04956245,-0.01023417,-0.00054017,-0.00054935,-0.01176488,-0.00242682,-0.01323099,-0.01957196,-0.01081581,0.00228029,-0.00985654,-0.00787724,0.00751710,0.00515376,-0.00947887,-0.01000045,-0.00780126,-0.02452009,-0.00991854,0.00997963,0.01382457,-0.00377056,-0.00973814,0.01563988,0.00732485,-0.01028557,-0.00518178,-0.02729060,-0.01967368,-0.00553307,0.01287270,-0.00072191,-0.00585675,0.00120640,0.00617424,-0.00350226,-0.00751387,-0.02208868,-0.03093131,-0.02015960,0.00070486,0.01712799,0, 00:00:04.9
51,-4.95887184,-0.00742444,-0.00330928,0.00595262,0.00039065,-0.01242093,-0.01147121,-0.00593453,-0.00397638,-0.00279051,-13.05331707,-0.00809583,0.00218504,0.00164533,-0.00538130,-0.00029777,-0.01094053,-0.01767331,-0.00651610,0.00600611,-0.00650959,-0.00559380,0.00918473,0.00741693,-0.00645147,-0.00784439,-0.00552184,-0.02187534,-0.00689736,0.01384304,0.01469902,-0.00248935,-0.00720393,0.01664525,0.00978133,-0.00784147,-0.00206961,-0.02312133,-0.01561321,0.00207583,0.01463808,0.00173004,-0.00403282,0.00449771,0.01114466,0.00054065,-0.00397505,-0.01779011,-0.02349417,-0.01339064,0.00696582,0.02077483,0, 00:00:05.0
52,-4.57490253,-0.00531038,-0.00220880,0.00629284,-0.00444268,-0.00903637,-0.00845218,-0.00369534,-0.00145138,-0.00010162,-13.06323624,-0.00582879,0.00498260,0.00423833,0.00010486,0.00210350,-0.00669445,-0.01588625,-0.00276710,0.00917338,-0.00248531,-0.00164865,0.00889302,0.01052684,-0.00322786,-0.00466839,-0.00252239,-0.01920317,-0.00368317,0.01698449,0.01481534,-0.00254843,-0.00566396,0.01726960,0.01246120,-0.00525340,0.00169532,-0.01855423,-0.01194924,0.00885436,0.01707043,0.00500322,-0.00290976,0.00772198,0.01706822,0.00445052,-0.00052802,-0.01324165,-0.01698579,-0.00739173,0.01350024,0.02393615,0, 00:00:05.1
53,-4.80027342,-0.00403250,-0.00124895,0.00645116,-0.01684975,-0.00679404,-0.00734935,-0.00269269,0.00031270,0.00217660,-13.56375694,-0.00391235,0.00722689,0.00603154,-0.01840833,0.00417305,-0.00468509,-0.01501021,-0.00057069,0.01211930,0.00096246,0.00048171,0.00639115,0.01314315,-0.00046771,-0.00160607,0.00101215,-0.01704105,-0.00088997,0.01983849,0.01427105,-0.00385336,-0.00574251,0.01795814,0.01517339,-0.00337582,0.00564456,-0.01435841,-0.00988870,0.01440289,0.01914470,0.01029009,-0.00300120,0.00877283,0.02227964,0.00719408,0.00211956,-0.00929253,-0.01286989,-0.00339351,0.01868526,0.02513217,0, 00:00:05.2
54,-4.37913752,-0.00321863,-0.00159799,0.00540530,-0.01152676,-0.00564101,-0.00916214,-0.00499673,-0.00054652,0.00250013,-13.68643379,-0.00363580,0.00812658,0.00662773,-0.02170216,0.00463098,-0.00547398,-0.01712273,-0.00260301,0.01345598,0.00179049,-0.00293578,0.00368738,0.01380104,0.00027861,-0.00049406,0.00334284,-0.01721297,-0.00026382,0.02000118,0.01295732,-0.00366724,-0.00692019,0.01801551,0.01677242,-0.00410658,0.00794369,-0.01260055,-0.01260231,0.01645787,0.01982531,0.00659790,-0.00475475,0.00849318,0.02486409,0.00767240,0.00210148,-0.00792346,-0.01497654,-0.00516176,0.02091889,0.02455602,0, 00:00:05.3
55,-4.37472486,-0.00345114,-0.00300993,0.00419160,-0.01188842,-0.00576208,-0.01096231,-0.00861113,-0.00267859,0.00132629,-13.68541050,-0.00436096,0.00828325,0.00664531,-0.01341758,0.00340840,-0.00673280,-0.02046354,-0.00601169,0.01329843,-0.00029002,-0.00443907,-0.00036295,0.01310587,-0.00091474,-0.00128733,0.00420831,-0.01871108,-0.00108486,0.01941072,0.01082809,-0.00528124,-0.00928287,0.01726125,0.01651170,-0.00620242,0.00828499,-0.01292441,-0.01764572,0.01623282,0.01976047,0.00342271,-0.00734524,0.00600623,0.02603151,0.00663449,0.00032438,-0.00832838,-0.02009081,-0.00935792,0.02134194,0.02233255,0, 00:00:05.4
56,-4.43707561,-0.00397586,-0.00441636,0.00355692,-0.01703238,-0.00647808,-0.01282982,-0.01198685,-0.00511013,0.00026816,-14.08465099,-0.00502995,0.00808263,0.00576028,-0.02729485,0.00162794,-0.00528967,-0.02365813,-0.00941718,0.01272337,-0.00223741,-0.00803152,-0.00214788,0.01321306,-0.00262276,-0.00278631,0.00403480,-0.02050193,-0.00241238,0.01733297,0.00944753,-0.00702908,-0.01152190,0.01599154,0.01569993,-0.00870246,0.00762523,-0.01420576,-0.02260530,0.01552900,0.01922171,0.00100712,-0.01012809,0.00427615,0.02628220,0.00518927,-0.00201903,-0.00968556,-0.02536893,-0.01346775,0.02103893,0.01951692,0, 00:00:05.5
57,-4.05754757,-0.00479581,-0.00577547,0.00179535,-0.01246456,-0.00698796,-0.01604417,-0.01546498,-0.00777417,-0.00066128,-14.08179283,-0.00577426,0.00753701,0.00473666,-0.04415021,-0.00037985,-0.00759167,-0.02709448,-0.01324247,0.01156181,-0.00387706,-0.00625490,-0.00274893,0.01282080,-0.00420510,-0.00420090,0.00325456,-0.02259270,-0.00408051,0.01526414,0.00777521,-0.00999431,-0.01311668,0.01447924,0.01457855,-0.01156085,0.00625859,-0.01654887,-0.02761533,0.01441561,0.01798242,-0.00036744,-0.01309210,0.00231485,0.02603832,0.00358301,-0.00494724,-0.01183636,-0.03057649,-0.01760786,0.02017674,0.01727206,0, 00:00:05.6
58,-4.17512131,-0.00546093,-0.00727755,0.00167057,-0.02225079,-0.00960084,-0.01697062,-0.01861287,-0.01016780,-0.00162595,-13.61466503,-0.00626003,0.00669139,0.00331174,-0.05611594,-0.00275349,-0.01075260,-0.03028529,-0.01665204,0.01024671,-0.00496572,-0.00987566,-0.00743976,0.01169988,-0.00606375,-0.00597366,0.00215538,-0.02477532,-0.00588296,0.01294641,0.00585011,-0.01257055,-0.01413700,0.01316342,0.01334836,-0.01441098,0.00468539,-0.01951487,-0.03220518,0.01320768,0.01640647,-0.00153094,-0.01587654,0.00001491,0.02572351,0.00142741,-0.00809886,-0.01378059,-0.03548490,-0.02124461,0.01927920,0.01478897,0, 00:00:05.7
59,-4.17505407,-0.00564306,-0.00784936,0.00176348,-0.03732632,-0.01053538,-0.01756180,-0.01904077,-0.01059252,-0.00179551,-13.18889618,-0.00656004,0.00685928,0.00277917,-0.05296110,-0.00435984,-0.01063989,-0.03111170,-0.01669277,0.01024204,-0.00544206,-0.01151123,-0.00955817,0.01142805,-0.00677078,-0.00698729,0.00150838,-0.02551054,-0.00631532,0.01239773,0.00484120,-0.01391791,-0.01513826,0.01281625,0.01350336,-0.01571420,0.00417658,-0.02096486,-0.03320935,0.01473451,0.01600239,-0.00171827,-0.01687545,-0.00062074,0.02647010,0.00042644,-0.00946824,-0.01421142,-0.03577157,-0.02072824,0.01994336,0.01530243,0, 00:00:05.8
60,-3.71496487,-0.00523077,-0.00732781,0.00204586,-0.04838953,-0.00997476,-0.01518140,-0.01718980,-0.00927708,-0.00009054,-13.32133293,-0.00583485,0.00793358,0.00346337,-0.05863576,-0.00452474,-0.00920957,-0.02973270,-0.01441156,0.01160486,-0.00346428,-0.01098297,-0.00886100,0.01330953,-0.00588668,-0.00679266,0.00194542,-0.02420948,-0.00510588,0.01445435,0.00478350,-0.01276643,-0.01420799,0.01348540,0.01497782,-0.01515041,0.00541298,-0.01967987,-0.03062457,0.01871709,0.01714110,-0.00273122,-0.01625098,0.00033373,0.02827129,0.00132165,-0.00861647,-0.01241739,-0.03149119,-0.01635955,0.02218968,0.01631366,0, 00:00:05.9
61,-3.77823329,-0.00452147,-0.00699316,0.00208762,-0.06180847,-0.01060426,-0.01254079,-0.01732768,-0.00941548,0.00101647,-13.32158279,-0.00548620,0.00833378,0.00371530,-0.07590076,-0.00490753,-0.00888198,-0.02993512,-0.01458208,0.01229220,-0.00285181,-0.01159825,-0.00688664,0.01432126,-0.00540952,-0.00713048,0.00196770,-0.02359210,-0.00456000,0.01491236,0.00510086,-0.01285305,-0.01498926,0.01344100,0.01551223,-0.01518606,0.00596913,-0.01906162,-0.03015561,0.02099978,0.01764788,-0.00501746,-0.01672333,-0.00007868,0.02894252,0.00165113,-0.00850902,-0.01139176,-0.02972673,-0.01465502,0.02354921,0.01523893,0, 00:00:06.0
62,-3.78161502,-0.00413623,-0.00751580,0.00413577,-0.07135360,-0.01135420,-0.01295978,-0.01921825,-0.01089710,0.00095403,-13.32028294,-0.00572652,0.00801679,0.00332642,-0.07143041,-0.00604474,-0.01023750,-0.03149691,-0.01639881,0.01171001,-0.00302494,-0.01043594,-0.00795630,0.01461459,-0.00573957,-0.00813682,0.00104790,-0.02388488,-0.00513981,0.01426091,0.00432657,-0.01304320,-0.01658054,0.01250386,0.01451775,-0.01628231,0.00514990,-0.01985157,-0.03184759,0.02130091,0.01658949,-0.00522766,-0.01813152,-0.00179369,0.02837335,0.00093166,-0.00965062,-0.01166132,-0.03075639,-0.01521132,0.02332513,0.01324860,0, 00:00:06.1
63,-4.12752485,-0.00482933,-0.00818329,0.00432820,-0.07314291,-0.01247002,-0.01227917,-0.02108259,-0.01239090,0.00044422,-13.32165241,-0.00610537,0.00734382,0.00241889,-0.04365105,-0.00767373,-0.01131575,-0.03292489,-0.01841619,0.01063220,-0.00397195,-0.01241150,-0.00961730,0.01413611,-0.00653701,-0.00942639,-0.00006426,-0.02444672,-0.00603628,0.01297921,0.00313427,-0.01482751,-0.01694204,0.01153049,0.01314613,-0.01769498,0.00404168,-0.02118543,-0.03387251,0.02118950,0.01534987,-0.00570108,-0.01972184,-0.00338955,0.02719533,-0.00010265,-0.01108203,-0.01228162,-0.03199433,-0.01617272,0.02242957,0.01029035,0, 00:00:06.2
64,-4.17298508,-0.00528124,-0.00893268,0.00339877,-0.06116661,-0.01480670,-0.01228111,-0.02292057,-0.01400827,-0.00071717,-13.32391739,-0.00646846,0.00650558,0.00143015,-0.03771621,-0.00965873,-0.01333038,-0.03434104,-0.02017061,0.00964592,-0.00468980,-0.01425103,-0.01202219,0.01399325,-0.00757460,-0.01086482,-0.00142401,-0.02524062,-0.00720137,0.01114538,0.00185336,-0.01614286,-0.01744870,0.01042503,0.01160150,-0.01943017,0.00253508,-0.02294229,-0.03589576,0.02072073,0.01368027,-0.00912212,-0.02145411,-0.00601388,0.02573141,-0.00139263,-0.01276491,-0.01321070,-0.03350193,-0.01733581,0.02122442,0.00851093,0, 00:00:06.3
65,-4.12395811,-0.00545496,-0.00974975,0.00083641,-0.06434370,-0.01659820,-0.01245074,-0.02441893,-0.01546595,-0.00152216,-13.32427025,-0.00689366,0.00556124,0.00037394,-0.03140938,-0.01171509,-0.01672953,-0.03564001,-0.02168781,0.00870021,-0.00643516,-0.01154020,-0.01290610,0.01328418,-0.00874928,-0.01282417,-0.00300426,-0.02603441,-0.00837739,0.00995367,0.00097030,-0.01642818,-0.01818989,0.00928425,0.01035191,-0.02104875,0.00086607,-0.02460160,-0.03749187,0.02039277,0.01195451,-0.00840059,-0.02287302,-0.00867644,0.02397284,-0.00274748,-0.01442079,-0.01403325,-0.03452453,-0.01810931,0.02015746,0.00572505,0, 00:00:06.4
66,-4.06894445,-0.00549815,-0.00969465,-0.00084316,-0.07147627,-0.01674381,-0.01016093,-0.02401385,-0.01548650,-0.00124126,-13.27169132,-0.00716562,0.00528231,-0.00007165,-0.01886146,-0.01281843,-0.01914952,-0.03534936,-0.02072695,0.00864967,-0.00451437,-0.01162470,-0.01216019,0.01368840,-0.00915371,-0.01378536,-0.00419187,-0.02550405,-0.00850866,0.01016086,0.00085626,-0.01577627,-0.01872979,0.00893972,0.00985246,-0.02154560,0.00027569,-0.02483983,-0.03645654,0.02214689,0.01106418,-0.00572354,-0.02300981,-0.00897562,0.02324846,-0.00305569,-0.01486120,-0.01361034,-0.03232106,-0.01577999,0.02038402,0.00446248,0, 00:00:06.5
67,-4.01647758,-0.00425809,-0.00884328,-0.00111397,-0.06065236,-0.01762154,-0.00827507,-0.02212146,-0.01412902,0.00010892,-12.77602386,-0.00652638,0.00585333,0.00022215,-0.00666532,-0.01253694,-0.01924114,-0.03349152,-0.01803082,0.00985312,-0.00141568,-0.00882872,-0.01091135,0.01331602,-0.00807134,-0.01337919,-0.00441214,-0.02388428,-0.00744044,0.01161678,0.00135485,-0.01584263,-0.01837372,0.00955520,0.01026178,-0.02047654,0.00083213,-0.02335407,-0.03276801,0.02574310,0.01124493,-0.00146552,-0.02200962,-0.00864394,0.02365478,-0.00208967,-0.01385046,-0.01182336,-0.02722141,-0.01087358,0.02202570,0.00440282,0, 00:00:06.6
68,-4.00680542,-0.00379616,-0.00883819,-0.00249647,-0.05917108,-0.01648862,-0.00974305,-0.02269559,-0.01438193,0.00038461,-12.43585491,-0.00626411,0.00575329,-0.00012045,-0.01346623,-0.01273150,-0.01999385,-0.03341288,-0.01851377,0.01020212,-0.00079982,-0.00664892,-0.01182579,0.01323066,-0.00758886,-0.01372245,-0.00472220,-0.02317007,-0.00733717,0.01196246,0.00108326,-0.01518890,-0.01912075,0.00924144,0.01026158,-0.02057674,0.00082670,-0.02257590,-0.03205449,0.02710735,0.01057529,-0.00210006,-0.02227608,-0.01056018,0.02325776,-0.00212093,-0.01416215,-0.01104065,-0.02581825,-0.00971031,0.02214733,0.00336286,0, 00:00:06.7
69,-3.98502517,-0.00436964,-0.00996914,-0.00205086,-0.06898052,-0.01560968,-0.01102740,-0.02512766,-0.01607131,-0.00077885,-12.41323185,-0.00693073,0.00457077,-0.00170617,-0.01430136,-0.01417604,-0.02118897,-0.03506254,-0.02112059,0.00894316,-0.00134362,-0.00483584,-0.01232862,0.01193044,-0.00846751,-0.01507495,-0.00582842,-0.02366053,-0.00874537,0.01056944,-0.00059355,-0.01559000,-0.02083894,0.00777715,0.00906212,-0.02207963,-0.00039090,-0.02376440,-0.03411489,0.02617352,0.00834309,-0.00489474,-0.02376149,-0.01301279,0.02137599,-0.00376652,-0.01628079,-0.01201269,-0.02798173,-0.01156456,0.02060718,0.00083603,0, 00:00:06.8
70,-3.98289037,-0.00515457,-0.01117841,-0.00363473,-0.06761669,-0.01576806,-0.01300866,-0.02731405,-0.01788387,-0.00242684,-12.11252213,-0.00783176,0.00305215,-0.00350132,-0.02208314,-0.01620088,-0.02169293,-0.03671988,-0.02363945,0.00744802,-0.00249292,-0.00495421,-0.01591804,0.01001429,-0.01011078,-0.01700835,-0.00729075,-0.02454150,-0.01067762,0.00872693,-0.00246124,-0.01616145,-0.02145292,0.00613265,0.00677353,-0.02395902,-0.00206345,-0.02572278,-0.03632692,0.02443582,0.00569693,-0.00693787,-0.02610075,-0.01514741,0.01903221,-0.00606342,-0.01897197,-0.01388448,-0.03058435,-0.01390350,0.01838794,-0.00289108,0, 00:00:06.9
71,-4.40043879,-0.00649193,-0.01259379,-0.00623662,-0.07974282,-0.01771858,-0.01346467,-0.02954635,-0.01992035,-0.00447488,-11.67217445,-0.00926602,0.00125220,-0.00565343,-0.04078111,-0.01839663,-0.02426940,-0.03856152,-0.02648724,0.00570141,-0.00535016,-0.01044966,-0.01996078,0.00833649,-0.01204498,-0.01923063,-0.00927604,-0.02561771,-0.01302753,0.00607595,-0.00521512,-0.01775433,-0.02257814,0.00425261,0.00429809,-0.02597679,-0.00386239,-0.02792079,-0.03887430,0.02226534,0.00309746,-0.00978468,-0.02827173,-0.01778387,0.01636361,-0.00881089,-0.02216878,-0.01601843,-0.03370482,-0.01652691,0.01568638,-0.00791744,0, 00:00:07.0
72,-4.49553251,-0.00768573,-0.01409425,-0.00958729,-0.08948939,-0.02003915,-0.01431169,-0.03160376,-0.02186070,-0.00594886,-11.67665577,-0.01070827,-0.00055025,-0.00820839,-0.04035828,-0.02088518,-0.02597101,-0.04029765,-0.02898884,0.00393909,-0.00859600,-0.01233518,-0.02105208,0.00655961,-0.01409488,-0.02139220,-0.01141006,-0.02674102,-0.01562636,0.00317131,-0.00802695,-0.02044639,-0.02372352,0.00219142,0.00180937,-0.02804472,-0.00605145,-0.03012303,-0.04118936,0.01991223,0.00009463,-0.01606121,-0.03020954,-0.02048038,0.01354108,-0.01165396,-0.02557958,-0.01855837,-0.03652565,-0.01893779,0.01313468,-0.01285390,0, 00:00:07.1
73,-4.45059490,-0.00850560,-0.01482504,-0.01292372,-0.07881257,-0.02076853,-0.01521323,-0.03200431,-0.02248386,-0.00629186,-11.68086529,-0.01160772,-0.00169798,-0.01010684,-0.06513558,-0.02252643,-0.02743867,-0.04069005,-0.02968832,0.00297505,-0.01037969,-0.01287573,-0.02407741,0.00495003,-0.01511307,-0.02306530,-0.01308584,-0.02703708,-0.01741242,0.00127241,-0.00991351,-0.02320898,-0.02398343,0.00097135,-0.00001341,-0.02914242,-0.00776470,-0.03159455,-0.04130312,0.01942183,-0.00218664,-0.01687367,-0.03134096,-0.02179774,0.01130893,-0.01357279,-0.02790833,-0.02022607,-0.03664229,-0.01870102,0.01169621,-0.01550014,0, 00:00:07.2
74,-4.80720758,-0.00848245,-0.01464320,-0.01345979,-0.07376633,-0.01947216,-0.01532298,-0.03025281,-0.02152690,-0.00522962,-11.19583225,-0.01166300,-0.00202877,-0.01087635,-0.07245199,-0.02258988,-0.02757627,-0.03907315,-0.02778496,0.00343030,-0.00822713,-0.01458746,-0.02449627,0.00430377,-0.01490927,-0.02339132,-0.01373747,-0.02584421,-0.01768951,0.00220125,-0.00880564,-0.02454246,-0.02346408,0.00122226,-0.00047498,-0.02853461,-0.00816135,-0.03105539,-0.03838988,0.02128349,-0.00247177,-0.01248946,-0.03078006,-0.02266511,0.01032102,-0.01385879,-0.02839410,-0.02016771,-0.03312759,-0.01524027,0.01172265,-0.01652874,0, 00:00:07.3
75,-4.86077166,-0.00767989,-0.01408941,-0.01372558,-0.08089782,-0.01844973,-0.01439394,-0.02856552,-0.02021891,-0.00395442,-11.10225677,-0.01182852,-0.00238607,-0.01110990,-0.08174258,-0.02206839,-0.02596891,-0.03743174,-0.02580753,0.00455200,-0.00780442,-0.01553418,-0.02315372,0.00394103,-0.01415548,-0.02307244,-0.01361207,-0.02426300,-0.01753645,0.00504379,-0.00603343,-0.02450622,-0.02294023,0.00335887,-0.00025240,-0.02728854,-0.00774484,-0.02937012,-0.03510091,0.02369728,-0.00120025,-0.01165287,-0.02937477,-0.02399804,0.00944639,-0.01344153,-0.02834825,-0.01921317,-0.02902466,-0.01166637,0.01154180,-0.01707095,0, 00:00:07.4
76,-5.24834967,-0.00736396,-0.01345308,-0.01318808,-0.07159247,-0.01669710,-0.01394529,-0.02694142,-0.01879455,-0.00249550,-11.10593033,-0.01178186,-0.00251732,-0.01098335,-0.06321955,-0.02145377,-0.02724952,-0.03578899,-0.02350470,0.00585604,-0.00681183,-0.01235164,-0.02170979,0.00476111,-0.01324210,-0.02210871,-0.01323242,-0.02255139,-0.01709501,0.00747978,-0.00301843,-0.02551929,-0.02092515,0.00505751,0.00005294,-0.02568457,-0.00711254,-0.02707649,-0.03203684,0.02661968,-0.00035312,-0.00869544,-0.02746802,-0.02427338,0.00887611,-0.01268122,-0.02808783,-0.01788358,-0.02494639,-0.00808756,0.01199570,-0.01709689,0, 00:00:07.5
77,-5.65297365,-0.00667866,-0.01280372,-0.01199981,-0.07925054,-0.01636800,-0.01396246,-0.02522116,-0.01701678,-0.00076455,-11.17344952,-0.01142096,-0.00226381,-0.01050453,-0.04361417,-0.02031607,-0.02712208,-0.03380615,-0.02092547,0.00746958,-0.00577907,-0.01062569,-0.02029186,0.00551109,-0.01198901,-0.02081605,-0.01250183,-0.02064589,-0.01631349,0.00947953,-0.00067199,-0.02674057,-0.02010727,0.00640347,0.00070343,-0.02383259,-0.00660080,-0.02458956,-0.02874858,0.02954219,0.00011140,-0.00537689,-0.02651498,-0.02434964,0.00894130,-0.01177890,-0.02744355,-0.01658898,-0.02079130,-0.00453721,0.01278993,-0.01712221,0, 00:00:07.6
78,-5.67902327,-0.00576954,-0.01212822,-0.01030459,-0.08746269,-0.01518908,-0.01398218,-0.02351346,-0.01517076,0.00017830,-11.18995667,-0.01092260,-0.00199832,-0.00983856,-0.03602875,-0.01900749,-0.02692390,-0.03175148,-0.01827104,0.00899492,-0.00464673,-0.00979602,-0.01960838,0.00665655,-0.01039714,-0.01859027,-0.01136261,-0.01864128,-0.01540418,0.01200413,0.00157505,-0.02794256,-0.02014235,0.00790608,0.00188011,-0.02195204,-0.00610495,-0.02207792,-0.02573702,0.03250294,0.00067627,-0.00422101,-0.02580302,-0.02455165,0.00943639,-0.01095790,-0.02652130,-0.01536899,-0.01675984,-0.00131617,0.01369815,-0.01782089,0, 00:00:07.7
79,-5.71511126,-0.00476153,-0.01084986,-0.00991839,-0.08028297,-0.01560462,-0.01090310,-0.02126458,-0.01297308,0.00174625,-11.61631584,-0.01017679,-0.00127597,-0.00912510,-0.02693593,-0.01743709,-0.02710392,-0.02945393,-0.01489223,0.01095453,-0.00312381,-0.00835402,-0.01896742,0.00889618,-0.00857863,-0.01597035,-0.00961439,-0.01634510,-0.01403103,0.01516679,0.00409316,-0.02799503,-0.01994704,0.00953449,0.00344432,-0.01967034,-0.00513870,-0.01847050,-0.02239667,0.03602017,0.00112510,-0.00174688,-0.02452760,-0.02374323,0.01053732,-0.00964997,-0.02511060,-0.01363857,-0.01204755,0.00257423,0.01529466,-0.01831747,0, 00:00:07.8
80,-5.60162735,-0.00284833,-0.00854374,-0.00751205,-0.06845666,-0.01513557,-0.00756067,-0.01669857,-0.00877930,0.00506217,-12.02439880,-0.00864245,0.00055378,-0.00716107,-0.02921504,-0.01484876,-0.02512893,-0.02507484,-0.00845941,0.01455620,0.00182737,-0.00324402,-0.01660942,0.01107225,-0.00507909,-0.01236916,-0.00654132,-0.01251534,-0.01099394,0.01984737,0.00849893,-0.02799487,-0.01798745,0.01245431,0.00651017,-0.01558680,-0.00184072,-0.01245598,-0.01582805,0.04230000,0.00287549,0.00413301,-0.02129028,-0.02093002,0.01303070,-0.00668186,-0.02169386,-0.00919590,-0.00310892,0.01029153,0.01903408,-0.01587214,0, 00:00:07.9
81,-5.55797815,-0.00048348,-0.00567257,-0.00363567,-0.07797624,-0.01198193,-0.00431808,-0.01164783,-0.00404353,0.00909255,-11.54818535,-0.00646564,0.00315613,-0.00435668,-0.02881777,-0.01082954,-0.02019264,-0.02010566,-0.00181143,0.01886703,0.00762125,0.00163070,-0.01100200,0.01461352,-0.00054093,-0.00751487,-0.00222842,-0.00774728,-0.00699415,0.02548965,0.01236692,-0.02567794,-0.01476549,0.01584208,0.01037972,-0.01032255,0.00299874,-0.00483115,-0.00822974,0.04979316,0.00552773,0.00840706,-0.01804421,-0.01743960,0.01645531,-0.00256150,-0.01735916,-0.00338287,0.00703112,0.01904090,0.02376382,-0.01262759,0, 00:00:08.0
82,-5.56450367,0.00059397,-0.00396947,-0.00329122,-0.08989023,-0.01105925,-0.00129261,-0.01008295,-0.00190385,0.01095797,-12.02372551,-0.00544830,0.00473889,-0.00252880,-0.03517316,-0.00741944,-0.01629211,-0.01806102,0.00089035,0.02188053,0.01041817,0.00226866,-0.00939145,0.01674112,0.00263214,-0.00334481,0.00194501,-0.00470576,-0.00451307,0.02927848,0.01508618,-0.02527523,-0.01251577,0.01840725,0.01325100,-0.00678395,0.00706896,0.00102351,-0.00527966,0.05421336,0.00715868,0.01015522,-0.01668852,-0.01611387,0.01905722,0.00014034,-0.01510030,0.00091248,0.01111296,0.02253725,0.02637688,-0.01274004,0, 00:00:08.1
83,-5.56522846,0.00079033,-0.00317280,-0.00360101,-0.07468681,-0.01030177,-0.00283877,-0.00977214,-0.00080748,0.01202523,-11.57846642,-0.00541126,0.00574520,-0.00120130,-0.02247292,-0.00494219,-0.01592124,-0.01721438,0.00209782,0.02400334,0.01122896,0.00203677,-0.00883630,0.01850016,0.00473635,0.00033646,0.00533278,-0.00307854,-0.00310798,0.03121243,0.01667873,-0.02532546,-0.01092602,0.02029094,0.01545407,-0.00466776,0.00998801,0.00511171,-0.00491663,0.05693933,0.00808252,0.01243405,-0.01662890,-0.01547784,0.02100990,0.00161770,-0.01427521,0.00388264,0.01213909,0.02347554,0.02776488,-0.01342661,0, 00:00:08.2
84,-5.56031275,0.00102040,-0.00231400,-0.00293554,-0.06812645,-0.00911386,-0.00428801,-0.00922205,0.00042521,0.01336992,-11.12244797,-0.00542042,0.00652592,0.00019516,-0.00575439,-0.00275122,-0.01371983,-0.01629116,0.00358288,0.02579110,0.01279705,0.00177388,-0.00915645,0.02058489,0.00625640,0.00388199,0.00852689,-0.00162173,-0.00183534,0.03298545,0.01725465,-0.02597894,-0.01042519,0.02204731,0.01721792,-0.00276647,0.01263574,0.00868069,-0.00469488,0.05924271,0.00893868,0.01133062,-0.01655509,-0.01460367,0.02285299,0.00282706,-0.01369137,0.00625435,0.01284249,0.02428427,0.02904879,-0.01398286,0, 00:00:08.3
85,-5.13234138,0.00117443,-0.00147968,-0.00353276,-0.06591415,-0.00760122,-0.00478709,-0.00821336,0.00199626,0.01483834,-10.67109966,-0.00512639,0.00745822,0.00144691,-0.01066213,-0.00052819,-0.01094766,-0.01495849,0.00567090,0.02746384,0.01298931,-0.00282887,-0.00567054,0.02196671,0.00778581,0.00753372,0.01207112,-0.00001343,-0.00034716,0.03474097,0.01944031,-0.02633376,-0.01066949,0.02411595,0.01950692,-0.00086396,0.01533472,0.01273755,-0.00386128,0.06184189,0.00976244,0.01041773,-0.01561193,-0.01318775,0.02479704,0.00417517,-0.01278854,0.00885098,0.01449501,0.02593799,0.03105315,-0.01334206,0, 00:00:08.4
86,-4.66909361,0.00147206,-0.00037619,-0.00359017,-0.06500787,-0.00666152,-0.00437864,-0.00716231,0.00352434,0.01685726,-10.26905155,-0.00491080,0.00862770,0.00303813,0.00834142,0.00173278,-0.00956818,-0.01358018,0.00807822,0.02917065,0.01483691,-0.00540143,-0.00533874,0.02340817,0.00942233,0.01137057,0.01601309,0.00156643,0.00119092,0.03705447,0.02116030,-0.02792845,-0.00920073,0.02618587,0.02189439,0.00126099,0.01840802,0.01656158,-0.00258289,0.06454298,0.01046654,0.00704878,-0.01484091,-0.01164575,0.02677321,0.00565600,-0.01168886,0.01161888,0.01646217,0.02795211,0.03310455,-0.01305081,0, 00:00:08.5
87,-4.66282558,0.00185882,0.00061640,-0.00232929,-0.04872924,-0.00809328,-0.00346742,-0.00628440,0.00498881,0.01814536,-10.26418304,-0.00441350,0.00983215,0.00442433,0.01503774,0.00390105,-0.00969043,-0.01237801,0.01016369,0.03078790,0.01774312,-0.00206672,-0.00340300,0.02532640,0.01124709,0.01501109,0.02011882,0.00298511,0.00261711,0.03824572,0.02178036,-0.02638920,-0.00830023,0.02742863,0.02412331,0.00316692,0.02180114,0.02059878,-0.00135416,0.06765097,0.01037529,0.00672717,-0.01430830,-0.00958133,0.02905531,0.00742326,-0.01061542,0.01446645,0.01845445,0.03013883,0.03518471,-0.01405780,0, 00:00:08.6
88,-4.65046978,0.00166759,0.00135178,-0.00208087,-0.05158642,-0.00907720,-0.00184813,-0.00632549,0.00604835,0.01900177,-10.26340389,-0.00394329,0.01104521,0.00597985,0.00338358,0.00561271,-0.01161266,-0.01190917,0.01076885,0.03176532,0.01891624,-0.00175388,-0.00389533,0.02721175,0.01258535,0.01847007,0.02421998,0.00424482,0.00376494,0.03648367,0.01838322,-0.02656318,-0.00950550,0.02657812,0.02559444,0.00455244,0.02494811,0.02410798,-0.00110741,0.06908081,0.00855508,0.00577495,-0.01488905,-0.00764655,0.03197651,0.00875148,-0.01000183,0.01681807,0.01909766,0.03117355,0.03734079,-0.01555309,0, 00:00:08.7
89,-4.65678358,0.00079421,0.00108466,-0.00223290,-0.04244534,-0.00992042,-0.00076101,-0.00884947,0.00520982,0.01809732,-10.26040459,-0.00462195,0.01109732,0.00582778,-0.02475034,0.00633383,-0.01176927,-0.01348707,0.00826974,0.03162497,0.01892773,-0.00236543,-0.00665433,0.02717718,0.01238300,0.02070660,0.02723123,0.00362805,0.00326977,0.03323756,0.01495833,-0.02813509,-0.01122833,0.02486154,0.02607795,0.00407395,0.02703856,0.02547749,-0.00455019,0.06697906,0.00622656,0.00413053,-0.01738422,-0.00762582,0.03322361,0.00792398,-0.01134970,0.01737890,0.01509051,0.02765998,0.03730203,-0.01918278,0, 00:00:08.8
90,-4.71880341,-0.00133198,0.00004443,-0.00106688,-0.05054224,-0.01133373,-0.00236028,-0.01238178,0.00326822,0.01607658,-10.26545620,-0.00624735,0.01022873,0.00487970,-0.04060900,0.00568007,-0.01392725,-0.01618866,0.00448515,0.03022436,0.01680451,-0.00786696,-0.01075982,0.02631317,0.01101050,0.02176360,0.02893341,0.00140616,0.00138391,0.02908902,0.01102592,-0.02952193,-0.01490195,0.02289954,0.02571397,0.00199486,0.02761742,0.02525136,-0.00984045,0.06313378,0.00306100,-0.00089982,-0.02058960,-0.00952539,0.03271094,0.00567963,-0.01422101,0.01632359,0.00846962,0.02207870,0.03565028,-0.02328410,0, 00:00:08.9
91,-4.39073277,-0.00304821,-0.00110116,-0.00253817,-0.04897138,-0.01540702,-0.00503117,-0.01544811,0.00121773,0.01396973,-9.76862335,-0.00788099,0.00902121,0.00359883,-0.06326480,0.00428322,-0.01788670,-0.01883281,0.00087651,0.02850308,0.01585080,-0.00956159,-0.01355747,0.02550222,0.00930890,0.02152767,0.02954590,-0.00112228,-0.00099669,0.02470593,0.00709820,-0.03207417,-0.01700124,0.02080858,0.02475768,-0.00033029,0.02775421,0.02432442,-0.01495407,0.05903960,0.00013325,-0.00826276,-0.02348275,-0.01268289,0.03170205,0.00304092,-0.01760074,0.01471222,0.00191051,0.01665577,0.03328907,-0.02786055,0, 00:00:09.0
92,-3.97010422,-0.00523893,-0.00238213,-0.00531480,-0.05117736,-0.01744924,-0.00914311,-0.01849158,-0.00093911,0.01204692,-9.91564751,-0.00958561,0.00757051,0.00230905,-0.04905444,0.00268081,-0.02223866,-0.02143703,-0.00261119,0.02650142,0.01448641,-0.01174831,-0.01849582,0.02375663,0.00712232,0.02010020,0.02953004,-0.00373170,-0.00365887,0.02042808,0.00394435,-0.03623119,-0.01813702,0.01847341,0.02342734,-0.00294865,0.02703267,0.02208399,-0.01980742,0.05479201,-0.00303849,-0.01313928,-0.02647395,-0.01535612,0.03011323,0.00021909,-0.02124239,0.01251947,-0.00457852,0.01151683,0.03079741,-0.03224803,0, 00:00:09.1
93,-4.12454653,-0.00665863,-0.00348000,-0.00865317,-0.07927448,-0.02003955,-0.01163997,-0.02036145,-0.00225132,0.01060154,-9.93202305,-0.01127115,0.00646525,0.00137073,-0.03338452,0.00108837,-0.02521983,-0.02315850,-0.00480924,0.02466762,0.01341516,-0.01647331,-0.02021340,0.02247543,0.00520325,0.01873929,0.02922716,-0.00609205,-0.00591022,0.01621565,0.00009582,-0.03954649,-0.02031987,0.01636167,0.02237476,-0.00512096,0.02583861,0.01979680,-0.02331710,0.05165401,-0.00569241,-0.01760826,-0.02836281,-0.01680208,0.02885511,-0.00218106,-0.02440128,0.01034506,-0.00915751,0.00824086,0.02912001,-0.03492310,0, 00:00:09.2
94,-4.58133507,-0.00730667,-0.00330155,-0.00802834,-0.10712672,-0.02146038,-0.01227065,-0.01890326,-0.00058095,0.01133461,-9.92921448,-0.01195450,0.00648743,0.00160244,-0.06291284,0.00068801,-0.02753514,-0.02196050,-0.00308415,0.02436233,0.01421536,-0.01809680,-0.02020389,0.02233660,0.00534763,0.01866547,0.02979790,-0.00641376,-0.00622661,0.01449291,-0.00120236,-0.04090384,-0.02043694,0.01568435,0.02311339,-0.00523941,0.02607403,0.02001185,-0.02215302,0.05210171,-0.00681839,-0.01579772,-0.02813467,-0.01596033,0.02888019,-0.00257832,-0.02486601,0.01035321,-0.00787821,0.01022805,0.02948432,-0.03545722,0, 00:00:09.3
95,-4.60849571,-0.00769862,-0.00265790,-0.00863256,-0.09450959,-0.02240852,-0.01159887,-0.01720174,0.00139905,0.01227990,-9.56606960,-0.01215152,0.00697528,0.00183802,-0.06154336,0.00081074,-0.02825153,-0.02021605,-0.00141467,0.02487829,0.01507330,-0.01769270,-0.02093255,0.02301593,0.00595335,0.01874448,0.03086659,-0.00584381,-0.00577509,0.01396943,-0.00164884,-0.04115940,-0.01968312,0.01554830,0.02413975,-0.00449444,0.02679960,0.02148276,-0.02013663,0.05300742,-0.00759195,-0.01619291,-0.02790025,-0.01511972,0.02957922,-0.00228094,-0.02427317,0.01149193,-0.00535409,0.01271782,0.03047575,-0.03657430,0, 00:00:09.4
96,-4.64263582,-0.00923564,-0.00291873,-0.01021919,-0.09381869,-0.02411074,-0.01337773,-0.01824752,0.00134264,0.01197521,-9.12458801,-0.01285666,0.00652626,0.00182346,-0.06307366,0.00014747,-0.03164881,-0.02081866,-0.00271943,0.02429621,0.01269586,-0.02624178,-0.02157284,0.02264209,0.00528613,0.01774097,0.03141767,-0.00689873,-0.00664423,0.01209538,-0.00297585,-0.04301080,-0.02094874,0.01433598,0.02403689,-0.00544623,0.02635998,0.02112491,-0.02137729,0.05162292,-0.00956244,-0.01925669,-0.02920510,-0.01667146,0.02909873,-0.00331910,-0.02533014,0.01164859,-0.00689732,0.01139835,0.02993756,-0.03843618,0, 00:00:09.5
97,-4.66769886,-0.01067948,-0.00375452,-0.00998866,-0.09379026,-0.02640196,-0.01769018,-0.02004365,0.00051679,0.01089128,-8.72890091,-0.01409811,0.00555559,0.00076682,-0.07026141,-0.00131676,-0.03684258,-0.02228433,-0.00506659,0.02313042,0.01086968,-0.03287763,-0.02372407,0.02104946,0.00374459,0.01578705,0.03102647,-0.00885435,-0.00839994,0.00903692,-0.00501853,-0.04620290,-0.02316293,0.01288738,0.02342646,-0.00740108,0.02537597,0.01946020,-0.02400069,0.04896566,-0.01177870,-0.02150545,-0.03085906,-0.01863866,0.02780620,-0.00529233,-0.02736669,0.01037279,-0.01012286,0.00861195,0.02843567,-0.04169841,0, 00:00:09.6
98,-4.75453663,-0.01192952,-0.00456887,-0.01293466,-0.09253276,-0.02928327,-0.01896466,-0.02166614,-0.00037738,0.00953048,-8.73875332,-0.01566159,0.00447500,-0.00022216,-0.07900292,-0.00298344,-0.04279372,-0.02374203,-0.00733729,0.02169747,0.00871855,-0.03721214,-0.02361962,0.01968370,0.00202299,0.01361304,0.03028114,-0.01099276,-0.01039509,0.00634709,-0.00743744,-0.04963938,-0.02566722,0.01163977,0.02244194,-0.00949294,0.02360090,0.01710190,-0.02689805,0.04606714,-0.01384234,-0.02261074,-0.03266244,-0.02042250,0.02653885,-0.00744575,-0.02972107,0.00809038,-0.01348482,0.00573969,0.02718883,-0.04458125,0, 00:00:09.7
99,-4.74985456,-0.01346423,-0.00577870,-0.01300941,-0.09139369,-0.03016773,-0.01844425,-0.02367948,-0.00126461,0.00820091,-8.73766994,-0.01778259,0.00317386,-0.00181479,-0.06074078,-0.00477786,-0.04824756,-0.02562925,-0.01027317,0.02020566,0.00674787,-0.03757374,-0.02549486,0.01765610,0.00008974,0.01140443,0.03042253,-0.01307937,-0.01265474,0.00356329,-0.01002410,-0.05285513,-0.02747727,0.01028324,0.02101657,-0.01209533,0.02148832,0.01382612,-0.03035215,0.04307057,-0.01597091,-0.02663843,-0.03444820,-0.02250587,0.02519183,-0.00979496,-0.03195829,0.00450421,-0.01734536,0.00271165,0.02545892,-0.04785153,0, 00:00:09.8
100,-4.66579294,-0.01541969,-0.00716300,-0.01389396,-0.10423422,-0.03141601,-0.01825358,-0.02585858,-0.00174718,0.00691294,-9.22787952,-0.01988450,0.00179525,-0.00322624,-0.05344208,-0.00678461,-0.05740014,-0.02740115,-0.01342146,0.01929182,0.00469939,-0.03979382,-0.03018482,0.01684337,-0.00222151,0.00893492,0.03135120,-0.01522342,-0.01512449,0.00074592,-0.01137169,-0.05491534,-0.03049845,0.00886103,0.01981459,-0.01514876,0.02021126,0.01014712,-0.03427841,0.03957571,-0.01821071,-0.03306092,-0.03662625,-0.02495863,0.02387015,-0.01239677,-0.03361471,0.00066242,-0.02188048,-0.00048350,0.02325896,-0.05102827,0, 00:00:09.9
101,-4.65144062,-0.01644173,-0.00805417,-0.01350712,-0.11216368,-0.03277843,-0.01916167,-0.02614989,-0.00121215,0.00626578,-9.23279095,-0.02109958,0.00113688,-0.00433564,-0.05703598,-0.00880703,-0.06260911,-0.02780963,-0.01427113,0.01875916,0.00349475,-0.04075957,-0.03295580,0.01680873,-0.00361602,0.00749126,0.03175595,-0.01678780,-0.01674172,-0.00100827,-0.01170633,-0.05688228,-0.03149257,0.00843359,0.01918720,-0.01721904,0.01904646,0.00841995,-0.03601165,0.03782931,-0.01942565,-0.03560865,-0.03773283,-0.02659658,0.02321873,-0.01420798,-0.03441141,-0.00123276,-0.02321866,-0.00106053,0.02250902,-0.05340346,1, 00:00:10.0
102,-4.63859415,-0.01670358,-0.00777364,-0.01239520,-0.09249375,-0.03488919,-0.01889352,-0.02439211,0.00090256,0.00735176,-9.22661114,-0.02180127,0.00120929,-0.00503137,-0.07973699,-0.00962959,-0.06705403,-0.02626908,-0.01266624,0.01992160,0.00384528,-0.04110864,-0.03198469,0.01741670,-0.00385295,0.00682254,0.03295115,-0.01684115,-0.01683917,0.00089461,-0.00943641,-0.05683885,-0.03090768,0.01045757,0.01999656,-0.01794419,0.01937602,0.00922681,-0.03464847,0.03884319,-0.01833791,-0.03377890,-0.03697739,-0.02755759,0.02335911,-0.01475111,-0.03339239,-0.00002685,-0.02059491,0.00159778,0.02313093,-0.05365478,0, 00:00:10.1
103,-4.63927364,-0.01637966,-0.00754097,-0.01174155,-0.09087236,-0.03587605,-0.01876308,-0.02286525,0.00367520,0.00858996,-9.22170162,-0.02243387,0.00141006,-0.00478298,-0.07252043,-0.01021137,-0.06842704,-0.02479938,-0.01105056,0.02238912,0.00389980,-0.04300927,-0.02822209,0.01852801,-0.00381577,0.00619743,0.03481852,-0.01629925,-0.01655063,0.00513495,-0.00322788,-0.05466941,-0.02931863,0.01388353,0.02158963,-0.01816364,0.02081430,0.01082608,-0.03314360,0.04108677,-0.01650781,-0.03265045,-0.03551655,-0.02618433,0.02356359,-0.01464865,-0.03124687,0.00231438,-0.01762707,0.00441009,0.02368350,-0.05367554,0, 00:00:10.2
104,-5.05744410,-0.01589086,-0.00747587,-0.01221909,-0.09937336,-0.03685146,-0.01683100,-0.02153359,0.00684523,0.01021869,-9.53531456,-0.02271920,0.00176736,-0.00439812,-0.05382117,-0.01082089,-0.06982392,-0.02305982,-0.00940101,0.02557245,0.00489306,-0.03860451,-0.02332999,0.02059254,-0.00365992,0.00625494,0.03762805,-0.01507523,-0.01587164,0.01019384,0.00325454,-0.05427838,-0.02892136,0.01717891,0.02290138,-0.01828953,0.02334565,0.01262445,-0.03189614,0.04331943,-0.01464918,-0.02892672,-0.03399617,-0.02600648,0.02450887,-0.01409598,-0.02820791,0.00542220,-0.01480605,0.00716256,0.02413436,-0.05376443,0, 00:00:10.3
105,-5.14132643,-0.01513191,-0.00750048,-0.01026007,-0.11057480,-0.03891833,-0.01466541,-0.02037430,0.00995378,0.01172374,-9.53281021,-0.02271134,0.00218975,-0.00423092,-0.05789264,-0.01146014,-0.07428159,-0.02143838,-0.00818052,0.02907775,0.00606401,-0.03879236,-0.01967431,0.02268384,-0.00347579,0.00634391,0.04126907,-0.01372809,-0.01511471,0.01424007,0.00935416,-0.05365584,-0.02918806,0.02019030,0.02416298,-0.01849406,0.02679561,0.01475303,-0.03123336,0.04520978,-0.01241987,-0.02697264,-0.03281759,-0.02597860,0.02566303,-0.01343438,-0.02500704,0.00904732,-0.01262824,0.00931864,0.02476791,-0.05506169,0, 00:00:10.4
106,-5.15220594,-0.01445899,-0.00754630,-0.00922572,-0.12137575,-0.04037492,-0.01372121,-0.01939435,0.01278118,0.01235208,-9.53571892,-0.02275923,0.00253226,-0.00403450,-0.04808781,-0.01223199,-0.07692911,-0.02013738,-0.00716898,0.03267768,0.00640841,-0.03549111,-0.01663495,0.02537610,-0.00298794,0.00682169,0.04470347,-0.01273283,-0.01440872,0.01814240,0.01355530,-0.05223460,-0.02871116,0.02300036,0.02550165,-0.01885076,0.02980737,0.01725569,-0.03104487,0.04667194,-0.01026615,-0.02600384,-0.03245983,-0.02628641,0.02689170,-0.01286236,-0.02209327,0.01298772,-0.01096263,0.01087013,0.02544387,-0.05608462,0, 00:00:10.5
107,-5.09945345,-0.01371500,-0.00743659,-0.00849051,-0.12194654,-0.04079265,-0.01217435,-0.01816272,0.01525744,0.01242764,-9.04509830,-0.02278168,0.00307425,-0.00378539,-0.04766815,-0.01295249,-0.07844520,-0.01887831,-0.00568833,0.03626409,0.00633609,-0.03439029,-0.01668664,0.02738052,-0.00300331,0.00715383,0.04724934,-0.01213908,-0.01367861,0.02210862,0.01673943,-0.05075850,-0.02807456,0.02599592,0.02683528,-0.01886236,0.03180305,0.02053311,-0.03051812,0.04830876,-0.00800599,-0.02694383,-0.03164081,-0.02672075,0.02820799,-0.01242169,-0.01975051,0.01737744,-0.00907101,0.01237729,0.02635349,-0.05790438,0, 00:00:10.6
108,-5.41484118,-0.01274404,-0.00629263,-0.00935067,-0.11639158,-0.03929111,-0.01192297,-0.01499915,0.01896766,0.01370791,-9.03357315,-0.02248733,0.00445255,-0.00277585,-0.04332690,-0.01260473,-0.07861423,-0.01580228,-0.00162455,0.04085243,0.00823473,-0.03223382,-0.01221275,0.02991776,-0.00171465,0.00853173,0.04955718,-0.01041385,-0.01163379,0.02770964,0.02187980,-0.04913877,-0.02661541,0.02973537,0.02934767,-0.01753355,0.03431445,0.02574513,-0.02713062,0.05216680,-0.00449490,-0.02556385,-0.02921113,-0.02481931,0.03053686,-0.01077200,-0.01631388,0.02274987,-0.00368008,0.01676847,0.02916056,-0.05728659,0, 00:00:10.7
109,-5.40082216,-0.01125103,-0.00519651,-0.01056918,-0.12125769,-0.03871776,-0.01107841,-0.01272132,0.02234628,0.01541296,-8.99974442,-0.02185214,0.00551096,-0.00172864,-0.05779743,-0.01186886,-0.07993311,-0.01323606,0.00113188,0.04546455,0.00925187,-0.02794172,-0.00629245,0.03262824,-0.00025903,0.01069518,0.05237998,-0.00840352,-0.00963823,0.03435224,0.02908595,-0.04724651,-0.02375403,0.03429284,0.03224375,-0.01611468,0.03740006,0.03137660,-0.02399200,0.05575297,-0.00014673,-0.02265988,-0.02711620,-0.02286926,0.03261780,-0.00922725,-0.01292089,0.02845930,0.00089681,0.02007391,0.03143589,-0.05736969,0, 00:00:10.8
110,-5.57120132,-0.01046735,-0.00540960,-0.01021378,-0.11339916,-0.03819776,-0.01180370,-0.01322241,0.02422847,0.01578183,-9.29892254,-0.02211936,0.00596716,-0.00181652,-0.04416184,-0.01234438,-0.08113462,-0.01295898,0.00103886,0.04971436,0.00798840,-0.02907462,-0.00158637,0.03425535,-0.00037205,0.01188406,0.05517982,-0.00784662,-0.00920561,0.04101093,0.03708307,-0.04615286,-0.02289243,0.03907227,0.03426580,-0.01638901,0.03993642,0.03477782,-0.02495451,0.05799551,0.00287352,-0.02031825,-0.02668120,-0.02247100,0.03264301,-0.00932862,-0.01096577,0.03262873,0.00047080,0.01902209,0.03166784,-0.05799036,0, 00:00:10.9
111,-5.95201111,-0.01024289,-0.00622149,-0.01176228,-0.11198196,-0.03817339,-0.01251316,-0.01407093,0.02597202,0.01517742,-8.82317638,-0.02259635,0.00603058,-0.00224793,-0.03497522,-0.01354333,-0.08161400,-0.01309219,0.00044884,0.05312821,0.00740499,-0.02827547,0.00110923,0.03509187,-0.00121713,0.01227815,0.05770461,-0.00773312,-0.00937645,0.04721353,0.04416487,-0.04546971,-0.02276576,0.04286535,0.03548322,-0.01724460,0.04223119,0.03718058,-0.02701736,0.05899548,0.00460201,-0.01943951,-0.02664645,-0.02201233,0.03283210,-0.00988294,-0.00951169,0.03633700,-0.00141511,0.01700639,0.03093015,-0.05969233,0, 00:00:11.0
112,-5.91620588,-0.01064068,-0.00689405,-0.01386280,-0.10757186,-0.03830140,-0.01268579,-0.01482933,0.02764082,0.01436589,-8.33198071,-0.02323644,0.00573401,-0.00319891,-0.02477925,-0.01548399,-0.08041007,-0.01335804,-0.00041834,0.05569668,0.00696373,-0.02946612,0.00115236,0.03546362,-0.00250994,0.01243309,0.05984997,-0.00781694,-0.00968232,0.05137281,0.04990481,-0.04496753,-0.02339016,0.04548108,0.03602805,-0.01847791,0.04431625,0.03911414,-0.02944955,0.05868462,0.00665752,-0.01995580,-0.02719986,-0.02245438,0.03332798,-0.01072053,-0.00829176,0.03960814,-0.00388342,0.01428073,0.02988672,-0.06246543,0, 00:00:11.1
113,-5.52926064,-0.01069646,-0.00778481,-0.01585805,-0.10333847,-0.04032375,-0.01392773,-0.01559626,0.02902542,0.01312649,-8.33636189,-0.02386584,0.00550566,-0.00423880,-0.03910959,-0.01782227,-0.08147598,-0.01356317,-0.00141267,0.05837452,0.00416950,-0.02992339,0.00060973,0.03584841,-0.00387695,0.01235021,0.06179367,-0.00803787,-0.01011011,0.05349937,0.05329565,-0.04387368,-0.02413690,0.04725410,0.03609706,-0.01995968,0.04623282,0.04048348,-0.03181989,0.05763124,0.00781510,-0.02083225,-0.02821605,-0.02305692,0.03369617,-0.01181182,-0.00721664,0.04243318,-0.00690736,0.01137204,0.02881641,-0.06564721,0, 00:00:11.2
114,-5.91979504,-0.01075626,-0.00856577,-0.01673898,-0.11064159,-0.04147064,-0.01414387,-0.01577015,0.03082258,0.01234357,-7.83010292,-0.02447452,0.00564573,-0.00511323,-0.05656755,-0.02013757,-0.08268298,-0.01352808,-0.00180029,0.06110106,0.00141974,-0.02810528,0.00283039,0.03614116,-0.00513053,0.01226239,0.06383241,-0.00801208,-0.01035983,0.05559642,0.05632494,-0.04298883,-0.02584245,0.04882709,0.03626155,-0.02104698,0.04793352,0.04186617,-0.03355546,0.05684639,0.00886557,-0.01810825,-0.02897715,-0.02310171,0.03395662,-0.01273988,-0.00588205,0.04492871,-0.00902340,0.00920889,0.02785184,-0.06898740,0, 00:00:11.3
115,-6.38352728,-0.00964093,-0.00828442,-0.01593731,-0.10242015,-0.04042870,-0.01356698,-0.01345779,0.03428227,0.01298072,-7.38614655,-0.02410356,0.00661518,-0.00524066,-0.07087637,-0.02151414,-0.08050566,-0.01155601,0.00072466,0.06491990,0.00183179,-0.02988411,0.00527549,0.03742421,-0.00464352,0.01337062,0.06645937,-0.00651419,-0.00915696,0.05872248,0.06020753,-0.04031312,-0.02558048,0.05077567,0.03735346,-0.02080908,0.05047700,0.04537881,-0.03189108,0.05872748,0.01104539,-0.01995176,-0.02782469,-0.02145071,0.03556494,-0.01209325,-0.00300378,0.04866763,-0.00674971,0.01096215,0.02884288,-0.06966753,0, 00:00:11.4
116,-6.47634745,-0.00837077,-0.00807457,-0.01493224,-0.10156833,-0.03830371,-0.01314009,-0.01157376,0.03747306,0.01383071,-7.36473799,-0.02317586,0.00769322,-0.00507059,-0.08543305,-0.02235267,-0.07952758,-0.00956915,0.00258849,0.06901655,0.00184087,-0.03028081,0.00822384,0.03979018,-0.00372073,0.01473375,0.06936544,-0.00479960,-0.00759954,0.06200116,0.06368190,-0.03785109,-0.02385069,0.05300096,0.03885349,-0.01996567,0.05355652,0.04967042,-0.02970538,0.06046769,0.01355658,-0.02081690,-0.02684904,-0.01970878,0.03738252,-0.01105484,0.00023850,0.05398730,-0.00399703,0.01264579,0.03002664,-0.07016785,0, 00:00:11.5
117,-6.92544651,-0.00800580,-0.00870922,-0.01367371,-0.11239123,-0.03584269,-0.01187851,-0.01234608,0.03865721,0.01311152,-7.39507246,-0.02282269,0.00815769,-0.00540545,-0.07082696,-0.02394610,-0.07910994,-0.00970483,0.00189067,0.07159028,-0.00031292,-0.03158860,0.01076451,0.04074423,-0.00427234,0.01519386,0.07165977,-0.00409736,-0.00731809,0.06393166,0.06643341,-0.03687616,-0.02308527,0.05433787,0.03917376,-0.02048582,0.05556933,0.05229278,-0.03059643,0.06003783,0.01482527,-0.02405085,-0.02712261,-0.01899483,0.03810861,-0.01108875,0.00195529,0.05795877,-0.00478867,0.01097545,0.02964324,-0.07254982,0, 00:00:11.6
118,-7.41011715,-0.00795735,-0.00981794,-0.01304301,-0.10259328,-0.03801489,-0.00940034,-0.01334883,0.03925438,0.01176843,-7.28165579,-0.02292060,0.00839736,-0.00617874,-0.08412224,-0.02605956,-0.07912574,-0.01027103,0.00074985,0.07335582,-0.00262041,-0.03413484,0.01210979,0.04037418,-0.00513798,0.01538653,0.07343054,-0.00384359,-0.00751879,0.06513701,0.06869806,-0.03610987,-0.02356069,0.05531005,0.03869779,-0.02136973,0.05699284,0.05426838,-0.03207994,0.05895793,0.01586804,-0.02427780,-0.02785026,-0.01861385,0.03811212,-0.01165516,0.00304295,0.06109316,-0.00631772,0.00890212,0.02850113,-0.07577616,0, 00:00:11.7
119,-7.36937189,-0.00748225,-0.01087955,-0.01303786,-0.08944866,-0.03964928,-0.00892118,-0.01413322,0.03962176,0.01040919,-7.29067802,-0.02271885,0.00842009,-0.00690746,-0.06850216,-0.02823512,-0.07840671,-0.01081694,-0.00028086,0.07509431,-0.00401203,-0.03679144,0.01191031,0.04127193,-0.00638438,0.01547795,0.07478713,-0.00361197,-0.00776900,0.06614214,0.07044162,-0.03584916,-0.02399526,0.05635668,0.03841874,-0.02213681,0.05793617,0.05616189,-0.03337077,0.05771714,0.01719553,-0.02505555,-0.02868810,-0.01845102,0.03813278,-0.01225183,0.00394352,0.06426601,-0.00752467,0.00690805,0.02750022,-0.07998633,0, 00:00:11.8
120,-6.93189526,-0.00743609,-0.01154121,-0.01338462,-0.08405249,-0.04101189,-0.00708835,-0.01447925,0.04025850,0.00927671,-7.10450745,-0.02242514,0.00870378,-0.00751104,-0.08197530,-0.03022797,-0.07876475,-0.01094328,-0.00080400,0.07683584,-0.00447920,-0.03541177,0.01285795,0.04240941,-0.00718179,0.01508143,0.07591757,-0.00321569,-0.00785082,0.06705095,0.07215312,-0.03650097,-0.02407135,0.05732680,0.03873225,-0.02266401,0.05891202,0.05798535,-0.03402073,0.05714934,0.01844700,-0.03029627,-0.02875227,-0.01828654,0.03841358,-0.01252691,0.00515473,0.06745819,-0.00798422,0.00574645,0.02701253,-0.08298735,0, 00:00:11.9
121,-6.93553829,-0.00731777,-0.01207548,-0.01293496,-0.08327778,-0.04073151,-0.00619469,-0.01468368,0.04114682,0.00853420,-7.11396456,-0.02204061,0.00904076,-0.00807431,-0.07361598,-0.03204994,-0.07773159,-0.01077018,-0.00114680,0.07873932,-0.00517836,-0.03432857,0.01228148,0.04275317,-0.00752957,0.01478337,0.07701692,-0.00275000,-0.00774206,0.06793100,0.07393857,-0.03508850,-0.02420795,0.05816896,0.03905426,-0.02314630,0.05993555,0.05978238,-0.03419181,0.05673043,0.01968225,-0.03087803,-0.02904028,-0.01773487,0.03862484,-0.01254560,0.00676441,0.07061624,-0.00783732,0.00505464,0.02666228,-0.08466841,0, 00:00:12.0
122,-7.27006388,-0.00731682,-0.01264330,-0.01149993,-0.06666616,-0.04042053,-0.00492586,-0.01524791,0.04191454,0.00802868,-6.61807489,-0.02222301,0.00928262,-0.00844428,-0.05885603,-0.03381920,-0.07690705,-0.01099587,-0.00188992,0.08062202,-0.00623525,-0.03594877,0.01186400,0.04364305,-0.00814968,0.01415719,0.07805813,-0.00216112,-0.00769740,0.06896891,0.07597858,-0.03379991,-0.02480261,0.05888302,0.03870672,-0.02371272,0.06091065,0.06098298,-0.03469938,0.05611555,0.02099107,-0.03213814,-0.02952825,-0.01810673,0.03874238,-0.01252128,0.00830905,0.07383825,-0.00807109,0.00416696,0.02621424,-0.08734309,0, 00:00:12.1
123,-7.33430719,-0.00752143,-0.01414258,-0.01076436,-0.07160538,-0.03989744,-0.00431066,-0.01803294,0.04088616,0.00568626,-6.61810827,-0.02283894,0.00859563,-0.00976893,-0.03076920,-0.03669100,-0.07798968,-0.01296669,-0.00537678,0.08128752,-0.00978080,-0.03709294,0.01283990,0.04344721,-0.00994297,0.01272510,0.07857373,-0.00286728,-0.00895731,0.06863369,0.07685517,-0.03335474,-0.02744685,0.05844214,0.03710652,-0.02564580,0.06096017,0.06062776,-0.03790055,0.05269276,0.02120696,-0.03574908,-0.03109580,-0.02035325,0.03795588,-0.01378552,0.00826176,0.07581960,-0.01175712,-0.00000673,0.02397175,-0.09206479,0, 00:00:12.2
124,-6.86596489,-0.00890539,-0.01681664,-0.01241364,-0.08678620,-0.04150049,-0.00573531,-0.02284878,0.03826263,0.00190780,-6.77248478,-0.02414317,0.00690711,-0.01255403,-0.02627440,-0.04118893,-0.07875722,-0.01676534,-0.01133677,0.08027340,-0.01574676,-0.03836113,0.00891819,0.04166676,-0.01326689,0.00958499,0.07780206,-0.00520259,-0.01186651,0.06589966,0.07448543,-0.03460002,-0.03075586,0.05644761,0.03406071,-0.02941477,0.05962652,0.05809594,-0.04426095,0.04683506,0.01931332,-0.04102090,-0.03427855,-0.02311605,0.03566338,-0.01678772,0.00625947,0.07562065,-0.01936334,-0.00742491,0.01994810,-0.09796994,0, 00:00:12.3
125,-6.78932858,-0.01088741,-0.01994513,-0.01364033,-0.09457044,-0.04478090,-0.00839362,-0.02769251,0.03523475,-0.00220386,-7.24055290,-0.02556648,0.00520930,-0.01577945,-0.01506871,-0.04637440,-0.08009912,-0.02084400,-0.01762433,0.07856052,-0.02093484,-0.04130431,0.00416258,0.03973712,-0.01715721,0.00552440,0.07616023,-0.00810493,-0.01543772,0.06051551,0.07063981,-0.03689700,-0.03314188,0.05256650,0.03070656,-0.03387353,0.05684698,0.05415822,-0.05089397,0.04008587,0.01561251,-0.04490350,-0.03859578,-0.02632706,0.03319277,-0.02065192,0.00357719,0.07413317,-0.02758944,-0.01507334,0.01603310,-0.10444121,0, 00:00:12.4
126,-6.33677006,-0.01303478,-0.02315896,-0.01633537,-0.10537103,-0.04791766,-0.01045580,-0.03240747,0.03204603,-0.00660283,-6.72114611,-0.02722528,0.00309372,-0.01981090,-0.01085563,-0.05182002,-0.08131647,-0.02518515,-0.02399988,0.07661988,-0.02603207,-0.04776135,0.00033705,0.03728191,-0.02152405,0.00056910,0.07424505,-0.01125560,-0.01938133,0.05530608,0.06751538,-0.03881471,-0.03679707,0.04883303,0.02686903,-0.03885733,0.05338048,0.04920681,-0.05730331,0.03281312,0.01265558,-0.05106454,-0.04314906,-0.02939237,0.03025969,-0.02504849,0.00054582,0.07208399,-0.03583282,-0.02257605,0.01163040,-0.11219601,0, 00:00:12.5
127,-6.08556509,-0.01499590,-0.02647170,-0.01827283,-0.10358434,-0.04918740,-0.01234784,-0.03712439,0.02867750,-0.01125226,-6.65495729,-0.02920781,0.00058610,-0.02426791,-0.01343363,-0.05755340,-0.08605842,-0.02973506,-0.03067512,0.07457454,-0.03010229,-0.05594200,-0.00232696,0.03421063,-0.02604659,-0.00455316,0.07211507,-0.01453682,-0.02362417,0.05066884,0.06420872,-0.03986380,-0.04095894,0.04567014,0.02281495,-0.04399296,0.04993285,0.04380117,-0.06356614,0.02566732,0.01016811,-0.05671850,-0.04697788,-0.03318617,0.02678681,-0.02960703,-0.00278825,0.06961758,-0.04395401,-0.02976304,0.00670002,-0.11991590,0, 00:00:12.6
128,-6.09945917,-0.01724683,-0.02954457,-0.02140565,-0.08900128,-0.05142997,-0.01527739,-0.04138454,0.02540160,-0.01521921,-7.12265539,-0.03124207,-0.00166019,-0.02849630,-0.02923426,-0.06327128,-0.09009212,-0.03392944,-0.03665050,0.07273048,-0.03488362,-0.05914709,-0.00473318,0.03020352,-0.03055658,-0.01058086,0.06971898,-0.01775990,-0.02774924,0.04554956,0.06108094,-0.04118428,-0.04282528,0.04268607,0.01844992,-0.04891189,0.04675993,0.03904288,-0.06911992,0.01894264,0.00804211,-0.06044574,-0.05027936,-0.03631966,0.02301427,-0.03389764,-0.00604388,0.06774336,-0.05144596,-0.03599369,0.00203216,-0.12614264,0, 00:00:12.7
129,-6.04287910,-0.01798802,-0.03197695,-0.02195133,-0.08823726,-0.05243258,-0.01801069,-0.04322018,0.02410932,-0.01753291,-6.67502642,-0.03257776,-0.00306346,-0.03151647,-0.05179049,-0.06802759,-0.09189037,-0.03590840,-0.03954417,0.07214207,-0.03776213,-0.05981382,-0.00596981,0.02736930,-0.03362232,-0.01574512,0.06761272,-0.01962479,-0.03049699,0.04274953,0.06016922,-0.04228947,-0.04415441,0.04079217,0.01517620,-0.05229501,0.04456643,0.03570629,-0.07159503,0.01530961,0.00724777,-0.06400250,-0.05175017,-0.03791779,0.02013025,-0.03663138,-0.00739230,0.06726856,-0.05447155,-0.03840348,-0.00071479,-0.13001828,0, 00:00:12.8
130,-6.01440525,-0.01902493,-0.03414987,-0.02303926,-0.09507682,-0.05375333,-0.01971984,-0.04524204,0.02284770,-0.01991141,-6.24371147,-0.03357858,-0.00432065,-0.03411479,-0.06415918,-0.07196882,-0.09310385,-0.03769727,-0.04270417,0.07187989,-0.04147702,-0.06478395,-0.00847232,0.02613772,-0.03598717,-0.02006109,0.06569608,-0.02092641,-0.03286297,0.04071948,0.05912046,-0.04190541,-0.04533078,0.03950857,0.01219538,-0.05479809,0.04204474,0.03267001,-0.07346483,0.01228512,0.00651946,-0.06753284,-0.05345254,-0.03978677,0.01792674,-0.03867565,-0.00824712,0.06649303,-0.05656957,-0.04030481,-0.00316062,-0.13370496,0, 00:00:12.9
131,-6.23648024,-0.02040181,-0.03674695,-0.02561989,-0.10965191,-0.05647338,-0.02180063,-0.04870059,0.02053260,-0.02308376,-6.27505493,-0.03540834,-0.00605047,-0.03730308,-0.06701445,-0.07648164,-0.09668994,-0.04078272,-0.04737067,0.07106324,-0.04599357,-0.06767413,-0.01168246,0.02384946,-0.03883747,-0.02481344,0.06360685,-0.02299548,-0.03587446,0.03852702,0.05844535,-0.04476742,-0.04673843,0.03791076,0.00914805,-0.05800492,0.03866959,0.02876556,-0.07693259,0.00820834,0.00555879,-0.07303712,-0.05539003,-0.04323039,0.01518239,-0.04136727,-0.00990748,0.06460715,-0.06091109,-0.04408995,-0.00640818,-0.13860571,0, 00:00:13.0
132,-6.68746471,-0.02164499,-0.03953485,-0.02768925,-0.10928190,-0.05809611,-0.02453806,-0.05200218,0.01822043,-0.02612919,-5.79233027,-0.03704626,-0.00779035,-0.04066616,-0.06540942,-0.08095635,-0.09883452,-0.04378701,-0.05192297,0.07024131,-0.05004831,-0.07174763,-0.01319654,0.02240609,-0.04199449,-0.02967418,0.06139494,-0.02533425,-0.03910327,0.03580130,0.05704660,-0.04592845,-0.04862172,0.03615616,0.00601358,-0.06133034,0.03506061,0.02464604,-0.08048327,0.00415764,0.00455652,-0.07671368,-0.05776836,-0.04555747,0.01250403,-0.04425499,-0.01182394,0.06243635,-0.06516834,-0.04776109,-0.00955475,-0.14273459,0, 00:00:13.1
133,-6.73662424,-0.02277954,-0.04235697,-0.02870869,-0.11397014,-0.06063155,-0.02487739,-0.05527414,0.01576425,-0.02925143,-5.80951357,-0.03854312,-0.00953858,-0.04397068,-0.07466168,-0.08536342,-0.10256012,-0.04694719,-0.05635523,0.06950454,-0.05350726,-0.07556923,-0.01295833,0.02088441,-0.04510771,-0.03492486,0.05930033,-0.02766301,-0.04248174,0.03448717,0.05597984,-0.04791692,-0.05141771,0.03456547,0.00280315,-0.06457834,0.03180635,0.02047866,-0.08401128,0.00022802,0.00364974,-0.08141435,-0.06014556,-0.04734149,0.00996720,-0.04711313,-0.01385812,0.06020824,-0.06962810,-0.05139217,-0.01243519,-0.14752290,0, 00:00:13.2
134,-6.27992105,-0.02416716,-0.04518826,-0.02881138,-0.12594303,-0.06258424,-0.02637109,-0.05878713,0.01325902,-0.03226686,-5.83640623,-0.04003410,-0.01114880,-0.04726959,-0.08761523,-0.08981453,-0.10706912,-0.05043813,-0.06117005,0.06874371,-0.05733742,-0.07504919,-0.01581674,0.01806904,-0.04804999,-0.04005802,0.05711718,-0.03009797,-0.04591899,0.03246979,0.05577586,-0.04853228,-0.05443715,0.03291271,-0.00053210,-0.06790675,0.02876449,0.01625501,-0.08785950,-0.00389416,0.00270451,-0.08640318,-0.06237427,-0.05041104,0.00753496,-0.04996440,-0.01576774,0.05796156,-0.07433376,-0.05509492,-0.01542772,-0.15171109,0, 00:00:13.3
135,-6.26968718,-0.02540870,-0.04809270,-0.02912254,-0.12347215,-0.06458383,-0.02829038,-0.06262685,0.01049660,-0.03525663,-6.30242443,-0.04179962,-0.01305632,-0.05034877,-0.09456765,-0.09440037,-0.11353946,-0.05412499,-0.06663226,0.06804301,-0.06059087,-0.07682100,-0.02027125,0.01633151,-0.05125828,-0.04544378,0.05463899,-0.03273904,-0.04950781,0.03025529,0.05482874,-0.04980871,-0.05610917,0.03100277,-0.00440227,-0.07163727,0.02591694,0.01146796,-0.09237386,-0.00832929,0.00174921,-0.09162894,-0.06485154,-0.05357837,0.00505512,-0.05279079,-0.01781001,0.05571377,-0.07989711,-0.05941011,-0.01854329,-0.15699720,0, 00:00:13.4
136,-6.36647320,-0.02559375,-0.05031891,-0.03241490,-0.10572731,-0.06681222,-0.03034227,-0.06446470,0.00965696,-0.03717955,-6.23565388,-0.04285204,-0.01431134,-0.05283158,-0.10374348,-0.09826090,-0.11920293,-0.05593494,-0.06931244,0.06857044,-0.06409939,-0.08009525,-0.02137811,0.01617376,-0.05332341,-0.04996905,0.05228118,-0.03431459,-0.05185980,0.02962200,0.05589461,-0.04944754,-0.05796020,0.02999104,-0.00692043,-0.07389921,0.02401615,0.00819281,-0.09444624,-0.01050376,0.00227378,-0.09161711,-0.06596462,-0.05461538,0.00364800,-0.05444699,-0.01847868,0.05446396,-0.08235309,-0.06056345,-0.01996777,-0.15969646,0, 00:00:13.5
137,-5.91785240,-0.02508614,-0.05139343,-0.03355799,-0.12061363,-0.06710211,-0.02992661,-0.06422226,0.01061688,-0.03717033,-5.84516144,-0.04313404,-0.01414808,-0.05365128,-0.12058760,-0.10064928,-0.12017883,-0.05579679,-0.06916305,0.07077414,-0.06622692,-0.08308935,-0.02161112,0.01692645,-0.05381391,-0.05323669,0.05077169,-0.03440016,-0.05242143,0.03204761,0.05920792,-0.05061856,-0.05935219,0.03061594,-0.00762386,-0.07412564,0.02354425,0.00650422,-0.09341814,-0.01008070,0.00464977,-0.09082102,-0.06560723,-0.05462016,0.00395348,-0.05425202,-0.01722428,0.05506747,-0.08107799,-0.05845951,-0.01926880,-0.15994409,0, 00:00:13.6
138,-5.84763527,-0.02434972,-0.05215404,-0.03260815,-0.11305144,-0.06687582,-0.02937815,-0.06360523,0.01187819,-0.03663599,-5.84453344,-0.04284253,-0.01358146,-0.05404326,-0.10722131,-0.10203140,-0.11952225,-0.05525484,-0.06846439,0.07399617,-0.06714261,-0.08453246,-0.02399920,0.01775429,-0.05356069,-0.05518137,0.05006429,-0.03410843,-0.05216131,0.03552007,0.06280715,-0.04941934,-0.05892169,0.03187944,-0.00698710,-0.07352731,0.02355258,0.00574258,-0.09188446,-0.00851618,0.00773783,-0.09293272,-0.06506846,-0.05444331,0.00523743,-0.05331322,-0.01538978,0.05654367,-0.07914375,-0.05594138,-0.01773889,-0.16020998,0, 00:00:13.7
139,-5.43412971,-0.02370031,-0.05246834,-0.03354452,-0.11982949,-0.06690136,-0.02977358,-0.06276044,0.01320469,-0.03591932,-5.84845400,-0.04219281,-0.01283997,-0.05416750,-0.08573326,-0.10305811,-0.12103393,-0.05478852,-0.06718312,0.07755675,-0.06736960,-0.08825111,-0.02167919,0.01937888,-0.05283454,-0.05656292,0.05011535,-0.03376479,-0.05150382,0.03957801,0.06531265,-0.04815454,-0.05798984,0.03380421,-0.00575862,-0.07250889,0.02366180,0.00583554,-0.09019452,-0.00607054,0.01128106,-0.09501810,-0.06434219,-0.05358126,0.00717063,-0.05202806,-0.01331196,0.05831775,-0.07705762,-0.05307749,-0.01571723,-0.15981147,0, 00:00:13.8
140,-5.40510702,-0.02264164,-0.05270734,-0.03534572,-0.11976273,-0.06820687,-0.03105884,-0.06184949,0.01466142,-0.03499255,-5.85097122,-0.04144045,-0.01175191,-0.05398952,-0.05170376,-0.10356083,-0.12015322,-0.05411990,-0.06597026,0.08143041,-0.06716503,-0.08703261,-0.02036899,0.02078248,-0.05186698,-0.05801935,0.05055809,-0.03305999,-0.05048965,0.04350821,0.06924547,-0.04559809,-0.05685603,0.03580477,-0.00419410,-0.07124910,0.02456729,0.00589624,-0.08852988,-0.00346517,0.01499882,-0.09319502,-0.06349655,-0.05195919,0.00969543,-0.05033727,-0.01102865,0.06026972,-0.07485112,-0.05013342,-0.01337880,-0.15927343,0, 00:00:13.9
141,-5.39378023,-0.02162368,-0.05276654,-0.03517045,-0.12175280,-0.06741121,-0.03234743,-0.06115554,0.01615034,-0.03414770,-6.36293602,-0.04087682,-0.01056547,-0.05316393,-0.01822453,-0.10374003,-0.12039659,-0.05353878,-0.06487469,0.08543296,-0.06844493,-0.08701736,-0.01792731,0.02200974,-0.05084832,-0.05899591,0.05131793,-0.03229130,-0.04933316,0.04814751,0.07273764,-0.04394890,-0.05747315,0.03809392,-0.00212181,-0.06977413,0.02581352,0.00584167,-0.08685330,-0.00079117,0.01884872,-0.09104607,-0.06257156,-0.05018646,0.01261092,-0.04845684,-0.00862193,0.06257258,-0.07284319,-0.04730555,-0.01066664,-0.15874138,0, 00:00:14.0
142,-5.37278748,-0.01999256,-0.05243455,-0.03471598,-0.12969521,-0.06651284,-0.03159679,-0.05993365,0.01808235,-0.03280509,-6.65519476,-0.04011737,-0.00891151,-0.05230514,-0.03394270,-0.10357203,-0.12003522,-0.05279303,-0.06299462,0.08984829,-0.06854004,-0.08882631,-0.01301853,0.02450684,-0.04936975,-0.05905493,0.05258198,-0.03141396,-0.04765044,0.05355419,0.07645003,-0.04160142,-0.05869980,0.04112013,0.00043940,-0.06770515,0.02733201,0.00654959,-0.08494596,0.00280577,0.02334015,-0.09101322,-0.06107374,-0.04830582,0.01596967,-0.04602654,-0.00581962,0.06516027,-0.07026362,-0.04385379,-0.00746874,-0.15700915,0, 00:00:14.1
143,-5.70066214,-0.01794945,-0.05128196,-0.03315740,-0.12456439,-0.06499694,-0.02985651,-0.05723687,0.02138024,-0.03034380,-6.75138235,-0.03855590,-0.00648005,-0.05005866,-0.05269260,-0.10214069,-0.12006841,-0.05056418,-0.05899291,0.09554420,-0.06696875,-0.08313394,-0.01118120,0.02811179,-0.04670927,-0.05737565,0.05512005,-0.02919877,-0.04472311,0.06025362,0.08160847,-0.03911524,-0.05637511,0.04547979,0.00425830,-0.06424423,0.03005221,0.00919263,-0.08050464,0.00860414,0.02875680,-0.08770209,-0.05868749,-0.04443255,0.02056332,-0.04214452,-0.00155374,0.06898744,-0.06496476,-0.03791630,-0.00272863,-0.15381475,0, 00:00:14.2
144,-5.29029608,-0.01592050,-0.05034161,-0.03401423,-0.12321479,-0.06429657,-0.02823102,-0.05642115,0.02308877,-0.02915083,-6.82197571,-0.03708451,-0.00420578,-0.04781691,-0.03948569,-0.10038423,-0.11869162,-0.04984565,-0.05703964,0.10117902,-0.06563715,-0.07763121,-0.00907375,0.03279017,-0.04451457,-0.05525892,0.05796488,-0.02764928,-0.04225599,0.06633241,0.08618782,-0.03659451,-0.05495109,0.04944979,0.00798510,-0.06112137,0.03264550,0.01159520,-0.07810584,0.01316095,0.03399937,-0.08714634,-0.05716527,-0.04162217,0.02513790,-0.03862919,0.00181357,0.07212389,-0.06258938,-0.03477849,0.00134314,-0.15107058,0, 00:00:14.3
145,-5.27244282,-0.01505398,-0.04997905,-0.03198110,-0.13886572,-0.06347486,-0.03006752,-0.05741894,0.02356109,-0.02856814,-6.75425911,-0.03624693,-0.00262611,-0.04607264,-0.06749834,-0.09887972,-0.11723359,-0.05083102,-0.05684791,0.10555780,-0.06536601,-0.07802048,-0.00993220,0.03595691,-0.04307833,-0.05355636,0.06069028,-0.02738691,-0.04070366,0.07100415,0.08957347,-0.03550651,-0.05469879,0.05275707,0.01111626,-0.05917591,0.03467892,0.01251113,-0.07818568,0.01605115,0.03853801,-0.08635468,-0.05654421,-0.03884536,0.02902220,-0.03611418,0.00368400,0.07382714,-0.06333230,-0.03415950,0.00448522,-0.15019968,0, 00:00:14.4
146,-5.30783272,-0.01434688,-0.04979146,-0.03170165,-0.14006016,-0.06363272,-0.03109508,-0.05813512,0.02431489,-0.02809046,-7.20438147,-0.03586968,-0.00112650,-0.04469221,-0.07135000,-0.09761588,-0.11639528,-0.05162697,-0.05639192,0.10981300,-0.06502575,-0.07219880,-0.00759647,0.03879927,-0.04168430,-0.05190638,0.06323350,-0.02727122,-0.03936174,0.07535971,0.09239583,-0.03506309,-0.05446346,0.05598697,0.01402002,-0.05743267,0.03708453,0.01318636,-0.07866476,0.01844589,0.04284352,-0.08818099,-0.05593582,-0.03616798,0.03291935,-0.03384587,0.00520462,0.07480808,-0.06455196,-0.03379384,0.00699868,-0.15005727,0, 00:00:14.5
147,-5.40494299,-0.01367523,-0.04961005,-0.03292820,-0.14354558,-0.06328740,-0.03098657,-0.05890262,0.02508087,-0.02777998,-7.60580873,-0.03563999,0.00048581,-0.04287897,-0.07378604,-0.09618226,-0.11499378,-0.05238671,-0.05612525,0.11378556,-0.06601951,-0.06889246,-0.00646616,0.04152429,-0.04046147,-0.04998154,0.06595312,-0.02730454,-0.03811052,0.07924426,0.09556971,-0.03372892,-0.05432622,0.05921457,0.01682722,-0.05559514,0.03929264,0.01382932,-0.07920144,0.02053596,0.04678095,-0.09000969,-0.05565672,-0.03344374,0.03664287,-0.03171605,0.00662340,0.07593976,-0.06628506,-0.03361606,0.00944992,-0.14878953,0, 00:00:14.6
148,-5.33282280,-0.01299808,-0.04936416,-0.03223779,-0.14235021,-0.06247817,-0.03336859,-0.05915814,0.02612656,-0.02711520,-7.60617781,-0.03506851,0.00222720,-0.04106443,-0.07267682,-0.09470737,-0.11256295,-0.05285985,-0.05538172,0.11803760,-0.06729504,-0.06318594,-0.00560777,0.04466768,-0.03878000,-0.04777063,0.06872654,-0.02720937,-0.03660575,0.08358548,0.09861230,-0.03126553,-0.05417528,0.06240906,0.02004885,-0.05366002,0.04195661,0.01478636,-0.07897780,0.02310571,0.05083298,-0.09143531,-0.05509593,-0.03056087,0.04051604,-0.02933220,0.00831608,0.07759915,-0.06737938,-0.03265719,0.01194388,-0.14776514,0, 00:00:14.7
149,-5.32145786,-0.01211151,-0.04886864,-0.03304079,-0.14540043,-0.06296992,-0.03571587,-0.05913360,0.02700454,-0.02654573,-7.61256075,-0.03440847,0.00407309,-0.03874573,-0.07261431,-0.09336171,-0.11152285,-0.05296629,-0.05427618,0.12211359,-0.06780667,-0.06500044,-0.00386995,0.04800273,-0.03725817,-0.04556698,0.07048331,-0.02737925,-0.03510561,0.08743010,0.10059012,-0.02971873,-0.05403867,0.06584027,0.02325672,-0.05157091,0.04452454,0.01606797,-0.07839347,0.02557231,0.05471933,-0.09016183,-0.05473252,-0.02823206,0.04422806,-0.02705157,0.00962172,0.08002974,-0.06821532,-0.03185853,0.01463600,-0.14659940,0, 00:00:14.8
150,-5.31080103,-0.01083527,-0.04849759,-0.03330997,-0.14414228,-0.06452356,-0.03675623,-0.05917215,0.02720341,-0.02605958,-7.60637951,-0.03386020,0.00561971,-0.03690004,-0.08277883,-0.09204581,-0.10934987,-0.05348608,-0.05333807,0.12546840,-0.06883429,-0.06314132,-0.00337321,0.05019634,-0.03595580,-0.04370976,0.07096078,-0.02791692,-0.03376704,0.09073399,0.10263660,-0.02832788,-0.05347185,0.06888683,0.02616673,-0.04958263,0.04575456,0.01751273,-0.07775822,0.02797514,0.05837093,-0.08714932,-0.05450556,-0.02527286,0.04756241,-0.02495406,0.00996940,0.08242373,-0.06927592,-0.03140319,0.01738446,-0.14604194,0, 00:00:14.9
151,-5.36297750,-0.01077409,-0.04859486,-0.03361765,-0.11889121,-0.06563645,-0.03901286,-0.06161078,0.02587300,-0.02702956,-7.60157490,-0.03425053,0.00641900,-0.03578841,-0.08997504,-0.09128881,-0.10925926,-0.05602039,-0.05548069,0.12805472,-0.07060953,-0.06902549,-0.00184210,0.05171347,-0.03569167,-0.04342571,0.07155658,-0.02957274,-0.03365381,0.09200382,0.10331149,-0.02622548,-0.05447032,0.07081188,0.02817538,-0.04901680,0.04643421,0.01642402,-0.08014821,0.02794805,0.06078967,-0.08881027,-0.05536830,-0.02441544,0.04988220,-0.02426550,0.00885927,0.08223955,-0.07452578,-0.03438313,0.01805939,-0.14759731,0, 00:00:15.0
152,-5.37360859,-0.01145949,-0.04989472,-0.03499384,-0.12204775,-0.06721780,-0.04382752,-0.06599785,0.02304311,-0.02960913,-7.60931396,-0.03523339,0.00625031,-0.03548484,-0.07989991,-0.09183970,-0.11161759,-0.06030644,-0.05990798,0.12885460,-0.07457437,-0.07076649,-0.00259024,0.05245368,-0.03683783,-0.04444160,0.07105560,-0.03265077,-0.03516790,0.08952230,0.10136425,-0.02658650,-0.05679541,0.07002101,0.02844151,-0.04995290,0.04552202,0.01237416,-0.08548940,0.02512401,0.06040579,-0.09603293,-0.05812127,-0.02405638,0.05107740,-0.02491102,0.00587447,0.07903039,-0.08348554,-0.04024521,0.01732019,-0.15108438,0, 00:00:15.1
153,-5.37481689,-0.01235055,-0.05135174,-0.03633755,-0.12308416,-0.06967715,-0.04800848,-0.07033966,0.01956145,-0.03192711,-7.19116879,-0.03629041,0.00584912,-0.03542157,-0.07806911,-0.09269933,-0.11515900,-0.06494700,-0.06445880,0.12835231,-0.07810064,-0.07086620,-0.00578793,0.05264780,-0.03844714,-0.04560670,0.06955364,-0.03649530,-0.03722588,0.08658814,0.09679108,-0.02936266,-0.05980665,0.06840356,0.02770028,-0.05134699,0.04300900,0.00698635,-0.09089743,0.02091492,0.06019325,-0.10240993,-0.06145538,-0.02551307,0.05162985,-0.02643035,0.00159204,0.07428350,-0.09296675,-0.04648676,0.01603031,-0.15400791,0, 00:00:15.2
154,-5.37774515,-0.01419683,-0.05274075,-0.03787581,-0.12081479,-0.07102488,-0.05127701,-0.07464202,0.01557060,-0.03392025,-6.84009981,-0.03780184,0.00528544,-0.03596262,-0.08732416,-0.09368332,-0.11788082,-0.06966231,-0.06925209,0.12885776,-0.07989492,-0.07149661,-0.00785272,0.05276178,-0.04050229,-0.04732138,0.06718648,-0.04084542,-0.03998266,0.08688799,0.09699210,-0.03239888,-0.06059828,0.06916043,0.02795320,-0.05290244,0.03920913,0.00088126,-0.09597768,0.01836013,0.05904903,-0.10749818,-0.06350532,-0.02682259,0.05004044,-0.02877490,-0.00337092,0.06836893,-0.10229552,-0.05219045,0.01410409,-0.15578535,0, 00:00:15.3
155,-5.30577755,-0.01582253,-0.05395404,-0.04028023,-0.13220283,-0.07107700,-0.05617798,-0.07860961,0.01180604,-0.03613590,-6.32175493,-0.03970954,0.00451034,-0.03678015,-0.07891738,-0.09464804,-0.11894573,-0.07401493,-0.07351566,0.12805913,-0.08161331,-0.07108921,-0.00691592,0.05307742,-0.04245239,-0.04926683,0.06459438,-0.04501018,-0.04277292,0.08718850,0.09700935,-0.03433242,-0.06122053,0.06918103,0.02833290,-0.05456305,0.03521353,-0.00535304,-0.10017482,0.01612400,0.05614497,-0.11239665,-0.06556915,-0.02687649,0.04901914,-0.03082903,-0.00804122,0.06209582,-0.11067035,-0.05662798,0.01220181,-0.15686934,0, 00:00:15.4
156,-5.30000162,-0.01657664,-0.05416760,-0.04086599,-0.11649283,-0.07109008,-0.05788279,-0.07965060,0.01107541,-0.03597105,-6.32632494,-0.04048849,0.00475363,-0.03648202,-0.08338235,-0.09481575,-0.12199551,-0.07587115,-0.07395609,0.12805234,-0.08291060,-0.07404600,-0.00862080,0.05309273,-0.04331206,-0.05041708,0.06306032,-0.04734683,-0.04369806,0.08723506,0.09689520,-0.03410900,-0.06202888,0.06958481,0.02898261,-0.05469448,0.03302839,-0.00993580,-0.10096894,0.01653752,0.05639341,-0.11453238,-0.06565652,-0.02524227,0.04995234,-0.03114519,-0.01006959,0.05777086,-0.11404639,-0.05692080,0.01230526,-0.15581761,0, 00:00:15.5
157,-5.26479578,-0.01616439,-0.05323035,-0.04017630,-0.12500395,-0.07102869,-0.05716682,-0.07789529,0.01336498,-0.03351101,-6.82436085,-0.04026342,0.00631710,-0.03476075,-0.07996231,-0.09383423,-0.12162285,-0.07476483,-0.07105511,0.13071761,-0.08238295,-0.07752242,-0.00620793,0.05563326,-0.04160742,-0.05012595,0.06280717,-0.04708852,-0.04231869,0.08960821,0.09855839,-0.03345166,-0.06080721,0.07096943,0.03134868,-0.05252697,0.03366075,-0.01199843,-0.09735328,0.02011021,0.05789397,-0.11286080,-0.06394468,-0.02157959,0.05231792,-0.02917137,-0.00862178,0.05624837,-0.11139788,-0.05233597,0.01483481,-0.15286899,0, 00:00:15.6
158,-4.85155392,-0.01573202,-0.05251414,-0.03947846,-0.13235874,-0.07189319,-0.05755679,-0.07795849,0.01487646,-0.03182184,-7.31361389,-0.04029065,0.00752990,-0.03267466,-0.08874617,-0.09302483,-0.12092318,-0.07491468,-0.07039911,0.13305224,-0.08220308,-0.07951351,-0.00509251,0.05736940,-0.04013687,-0.04999055,0.06299939,-0.04704645,-0.04136267,0.09132557,0.09957691,-0.03232867,-0.06131911,0.07198361,0.03329739,-0.05063757,0.03485084,-0.01438801,-0.09561680,0.02223750,0.05898937,-0.11183927,-0.06319524,-0.01925076,0.05442471,-0.02734268,-0.00727055,0.05537465,-0.11080213,-0.04999045,0.01644557,-0.15152536,0, 00:00:15.7
159,-5.22726536,-0.01625951,-0.05295501,-0.04063565,-0.12157378,-0.07178447,-0.05922588,-0.07986504,0.01496930,-0.03153995,-7.35865259,-0.04092781,0.00803954,-0.03123770,-0.06358852,-0.09332579,-0.12126584,-0.07669236,-0.07147811,0.13442296,-0.08189122,-0.08225388,-0.01014405,0.05763335,-0.03972592,-0.05125713,0.06238014,-0.04858048,-0.04149444,0.09042501,0.09814017,-0.03184244,-0.06318811,0.07130977,0.03400497,-0.05014602,0.03457566,-0.01798005,-0.09687506,0.02212669,0.05834426,-0.11474653,-0.06375303,-0.01871353,0.05584770,-0.02647065,-0.00734521,0.05351660,-0.11370178,-0.05063331,0.01707483,-0.15211375,0, 00:00:15.8
160,-5.08130884,-0.01718227,-0.05324456,-0.04316386,-0.11695751,-0.07241820,-0.06101294,-0.08168983,0.01424791,-0.03206510,-6.88974857,-0.04128443,0.00820343,-0.02992830,-0.07012341,-0.09396299,-0.12416229,-0.07887781,-0.07282677,0.13444246,-0.08307044,-0.08050719,-0.01295324,0.05806877,-0.03963961,-0.05273674,0.06106378,-0.05057801,-0.04181642,0.08695970,0.09387124,-0.03331067,-0.06555222,0.06913868,0.03402162,-0.05013806,0.03321315,-0.02197119,-0.09824244,0.02056910,0.05750770,-0.12105349,-0.06521073,-0.01835641,0.05793950,-0.02581107,-0.00825996,0.05073247,-0.11679639,-0.05140886,0.01772759,-0.15427874,0, 00:00:15.9
161,-4.75018597,-0.01791968,-0.05356238,-0.04183716,-0.11513476,-0.07418813,-0.06200118,-0.08362881,0.01299054,-0.03265292,-7.05067825,-0.04198482,0.00819284,-0.02907072,-0.07135653,-0.09471792,-0.12792572,-0.08114833,-0.07453952,0.13440016,-0.08482891,-0.08077760,-0.01407153,0.05921460,-0.03981916,-0.05418413,0.05958327,-0.05273235,-0.04243193,0.08293642,0.08913908,-0.03432373,-0.06760018,0.06721145,0.03405318,-0.05042173,0.03093398,-0.02614055,-0.09975563,0.01890618,0.05736374,-0.12652081,-0.06652037,-0.01860120,0.05925053,-0.02568157,-0.00967982,0.04657896,-0.11997158,-0.05251751,0.01811568,-0.15552223,0, 00:00:16.0
162,-4.74422455,-0.01839606,-0.05412481,-0.04323661,-0.11195365,-0.07522597,-0.06333930,-0.08535065,0.01166053,-0.03351008,-7.54596519,-0.04247908,0.00835649,-0.02852000,-0.08040662,-0.09532096,-0.13109371,-0.08339273,-0.07602321,0.13502054,-0.08683074,-0.08451094,-0.01497906,0.06059980,-0.03990567,-0.05580261,0.05809091,-0.05510308,-0.04316891,0.08015009,0.08612640,-0.03408534,-0.06852920,0.06632007,0.03492150,-0.05069394,0.02880538,-0.02963169,-0.10083999,0.01835565,0.05703662,-0.13061106,-0.06715145,-0.01815158,0.06009083,-0.02583833,-0.01116802,0.04323864,-0.12245236,-0.05307892,0.01870462,-0.15574726,0, 00:00:16.1
163,-4.72781324,-0.01849732,-0.05365935,-0.04225881,-0.11707617,-0.07383491,-0.06361019,-0.08491289,0.01221064,-0.03251112,-7.53953266,-0.04239874,0.00919265,-0.02693241,-0.07210453,-0.09499861,-0.13300158,-0.08391172,-0.07462326,0.13630295,-0.08526930,-0.08713014,-0.01418193,0.06181519,-0.03893699,-0.05697382,0.05661458,-0.05630943,-0.04271968,0.08067293,0.08578761,-0.03455507,-0.06739850,0.06687337,0.03685490,-0.04944789,0.02750982,-0.03129825,-0.09901705,0.02067281,0.05817055,-0.13138294,-0.06610549,-0.01593199,0.06167823,-0.02463712,-0.01120911,0.04169045,-0.12082782,-0.05005750,0.02095947,-0.15347339,0, 00:00:16.2
164,-4.72814655,-0.01721575,-0.05239552,-0.04108378,-0.12058060,-0.07402934,-0.06247581,-0.08302475,0.01390726,-0.03015309,-8.03856564,-0.04126523,0.01070471,-0.02447664,-0.05497271,-0.09361340,-0.13346127,-0.08284103,-0.07165931,0.13868961,-0.08330838,-0.08978375,-0.01312119,0.06433866,-0.03662897,-0.05667161,0.05577397,-0.05583910,-0.04088341,0.08301719,0.08567771,-0.03388136,-0.06475779,0.06896769,0.03995514,-0.04672820,0.02774138,-0.03077886,-0.09435035,0.02532433,0.06076066,-0.13100268,-0.06376372,-0.01289129,0.06450159,-0.02176710,-0.00950583,0.04253425,-0.11582955,-0.04417808,0.02478047,-0.14968701,0, 00:00:16.3
165,-4.72075987,-0.01674377,-0.05198609,-0.04062824,-0.11889011,-0.07414244,-0.06232853,-0.08382355,0.01389131,-0.02903971,-8.48932076,-0.04105530,0.01171296,-0.02279395,-0.03817007,-0.09268253,-0.13574262,-0.08354428,-0.07159815,0.14017877,-0.08309706,-0.08991347,-0.01401947,0.06672179,-0.03508912,-0.05717575,0.05498842,-0.05616265,-0.03996084,0.08414378,0.08544271,-0.03351177,-0.06422792,0.07086237,0.04204679,-0.04487611,0.02770073,-0.03135063,-0.09269250,0.02788176,0.06260446,-0.13123275,-0.06294803,-0.01123566,0.06640983,-0.01985946,-0.00883087,0.04267301,-0.11443021,-0.04173244,0.02710736,-0.14813423,0, 00:00:16.4
166,-4.70717573,-0.01717239,-0.05227341,-0.04012375,-0.09803461,-0.07498977,-0.06416237,-0.08640815,0.01253864,-0.02891025,-8.96194935,-0.04182823,0.01198661,-0.02210149,-0.03805283,-0.09288243,-0.13680738,-0.08614168,-0.07349690,0.14066620,-0.08325846,-0.09024957,-0.01456971,0.06716737,-0.03498587,-0.05866460,0.05377992,-0.05771254,-0.04032735,0.08447795,0.08448603,-0.03452251,-0.06589282,0.07178772,0.04255239,-0.04449251,0.02620613,-0.03416490,-0.09401453,0.02866156,0.06362081,-0.13206717,-0.06342438,-0.01180815,0.06714854,-0.01928582,-0.00957142,0.04042207,-0.11634824,-0.04196291,0.02801526,-0.14843796,0, 00:00:16.5
167,-4.30297089,-0.01767951,-0.05273725,-0.04027652,-0.08329658,-0.07748579,-0.06540318,-0.08862991,0.01136445,-0.02933366,-9.42654133,-0.04264176,0.01187554,-0.02187987,-0.04932980,-0.09359886,-0.13924989,-0.08858568,-0.07511171,0.14103691,-0.08452705,-0.09215030,-0.01602308,0.06822797,-0.03513230,-0.06044528,0.05211147,-0.05949879,-0.04099037,0.08464459,0.08402486,-0.03541108,-0.06797408,0.07243821,0.04303227,-0.04457799,0.02440820,-0.03680243,-0.09540871,0.02918386,0.06439903,-0.13323362,-0.06400721,-0.01204270,0.06763188,-0.01917613,-0.01049709,0.03812262,-0.11853400,-0.04234670,0.02862219,-0.14863545,0, 00:00:16.6
168,-3.83738303,-0.01805634,-0.05319377,-0.04124105,-0.10586504,-0.07694924,-0.06774383,-0.09070358,0.01018820,-0.02981751,-9.56619263,-0.04359385,0.01144178,-0.02171096,-0.05529815,-0.09478706,-0.14095017,-0.09095844,-0.07674663,0.14139198,-0.08639009,-0.09442654,-0.01788056,0.06892136,-0.03568373,-0.06253025,0.05008157,-0.06141203,-0.04184329,0.08422098,0.08359268,-0.03717875,-0.06861608,0.07302024,0.04334676,-0.04489844,0.02238904,-0.03982050,-0.09697893,0.02939588,0.06497015,-0.13756588,-0.06462707,-0.01230477,0.06784058,-0.01935837,-0.01148327,0.03584576,-0.12092265,-0.04303570,0.02918468,-0.14862780,0, 00:00:16.7
169,-4.27051401,-0.01840229,-0.05345862,-0.04426344,-0.12258148,-0.07595960,-0.06882006,-0.09165143,0.00996577,-0.02953733,-9.58821583,-0.04448691,0.01157951,-0.02133635,-0.06483524,-0.09577338,-0.14400312,-0.09240540,-0.07677197,0.14222607,-0.08748088,-0.09678068,-0.01791252,0.06854966,-0.03563925,-0.06441817,0.04845698,-0.06278797,-0.04223027,0.08494079,0.08396477,-0.03682174,-0.06848023,0.07378723,0.04387184,-0.04497953,0.02075059,-0.04243605,-0.09720418,0.03076775,0.06562831,-0.14136143,-0.06450777,-0.01181734,0.06834814,-0.01901259,-0.01159262,0.03365615,-0.12157844,-0.04191311,0.03016768,-0.14797583,0, 00:00:16.8
170,-4.33223820,-0.01762189,-0.05285688,-0.04340001,-0.13526474,-0.07451277,-0.06797037,-0.09038880,0.01162302,-0.02799862,-10.07525253,-0.04425116,0.01264701,-0.02042762,-0.04121511,-0.09586022,-0.14447884,-0.09165119,-0.07408878,0.14438519,-0.08737302,-0.09623493,-0.01582477,0.06997406,-0.03407849,-0.06495096,0.04751066,-0.06254132,-0.04112912,0.08732969,0.08603933,-0.03533619,-0.06827796,0.07572269,0.04546727,-0.04338779,0.02024370,-0.04255681,-0.09393010,0.03450063,0.06775352,-0.13795799,-0.06284022,-0.00989020,0.06993119,-0.01705088,-0.00979922,0.03385782,-0.11789992,-0.03709258,0.03294557,-0.14450821,0, 00:00:16.9
171,-4.01663876,-0.01588866,-0.05166402,-0.04258141,-0.12810712,-0.07348644,-0.06641379,-0.08827241,0.01411232,-0.02535755,-10.50695705,-0.04333393,0.01443714,-0.01861119,-0.02799511,-0.09523176,-0.14403187,-0.09010919,-0.07027593,0.14741775,-0.08442295,-0.09598151,-0.01323091,0.07278865,-0.03198104,-0.06436720,0.04755077,-0.06113090,-0.03896666,0.09168313,0.08889876,-0.03411803,-0.06619010,0.07867271,0.04780022,-0.04055379,0.02104898,-0.04101137,-0.08915190,0.03992402,0.07062484,-0.13800795,-0.05992552,-0.00704950,0.07232164,-0.01393621,-0.00689305,0.03563803,-0.11209516,-0.03067910,0.03704314,-0.14049903,0, 00:00:17.0
172,-4.01406479,-0.01413145,-0.05054974,-0.04045554,-0.13339467,-0.07199027,-0.06636941,-0.08654498,0.01635904,-0.02310462,-10.57637405,-0.04164322,0.01630646,-0.01703298,-0.03188134,-0.09418170,-0.14316580,-0.08870398,-0.06686195,0.15057179,-0.08077853,-0.09443592,-0.01234077,0.07440476,-0.02938041,-0.06340485,0.04820354,-0.05955308,-0.03660629,0.09609335,0.09123800,-0.03326260,-0.06381291,0.08177545,0.05083203,-0.03760492,0.02236463,-0.03853798,-0.08437832,0.04560533,0.07350265,-0.13860165,-0.05693838,-0.00342026,0.07492690,-0.01075128,-0.00383942,0.03804939,-0.10633402,-0.02440503,0.04099150,-0.13579720,0, 00:00:17.1
173,-4.38726377,-0.01274405,-0.04956600,-0.03907698,-0.12644698,-0.07079156,-0.06627063,-0.08482452,0.01863830,-0.02049856,-10.13497448,-0.04030861,0.01838011,-0.01514274,-0.03438710,-0.09270978,-0.14147294,-0.08737726,-0.06325077,0.15385905,-0.07816286,-0.09312190,-0.01093346,0.07749997,-0.02651003,-0.06188206,0.04899855,-0.05777607,-0.03410386,0.10041479,0.09327956,-0.03199929,-0.06167257,0.08509476,0.05387264,-0.03452560,0.02390452,-0.03536691,-0.07981325,0.05173296,0.07660775,-0.13495088,-0.05395845,0.00017936,0.07764959,-0.00742014,-0.00063341,0.04053369,-0.10052404,-0.01815588,0.04514837,-0.13126817,0, 00:00:17.2
174,-4.44554758,-0.01123290,-0.04838197,-0.03734143,-0.12030644,-0.06778663,-0.06464744,-0.08302090,0.02084945,-0.01801058,-10.46439934,-0.03924673,0.02071601,-0.01311703,-0.07293058,-0.09085449,-0.14214019,-0.08597498,-0.05953797,0.15743966,-0.07414459,-0.09377550,-0.00755896,0.07995852,-0.02346604,-0.05964322,0.05016054,-0.05564466,-0.03140230,0.10502049,0.09635714,-0.02917533,-0.05820494,0.08847936,0.05710505,-0.03110167,0.02576811,-0.03203541,-0.07499991,0.05803765,0.08003364,-0.13337085,-0.05108844,0.00342571,0.08065391,-0.00395872,0.00274096,0.04340040,-0.09432140,-0.01171287,0.04964836,-0.12699555,0, 00:00:17.3
175,-4.42341948,-0.00927097,-0.04692079,-0.03595150,-0.11834846,-0.06379868,-0.06436815,-0.08076792,0.02356993,-0.01497770,-10.04118729,-0.03795753,0.02304847,-0.01068808,-0.07388322,-0.08860920,-0.14362647,-0.08409654,-0.05511804,0.16130912,-0.07099036,-0.09234811,-0.00499029,0.08231198,-0.02023727,-0.05687439,0.05203991,-0.05301467,-0.02820953,0.11052823,0.09932573,-0.02564186,-0.05625992,0.09213047,0.06049010,-0.02721155,0.02865032,-0.02756254,-0.06948113,0.06517684,0.08376877,-0.13244526,-0.04750942,0.00757380,0.08394570,-0.00002727,0.00667492,0.04708637,-0.08719280,-0.00438287,0.05464609,-0.12225305,0, 00:00:17.4
176,-4.47817373,-0.00692589,-0.04527681,-0.03518916,-0.10689636,-0.06136478,-0.06262752,-0.07882703,0.02621709,-0.01197675,-10.19510174,-0.03673904,0.02544695,-0.00806299,-0.07261891,-0.08614831,-0.14253701,-0.08224744,-0.05120624,0.16502321,-0.06853254,-0.09090227,-0.00380364,0.08573622,-0.01661919,-0.05380066,0.05399413,-0.05032016,-0.02493190,0.11629134,0.10205175,-0.02358077,-0.05389475,0.09591971,0.06392793,-0.02315490,0.03218567,-0.02259760,-0.06431177,0.07225422,0.08733688,-0.12975350,-0.04423622,0.01134480,0.08738274,0.00387875,0.01055089,0.05100956,-0.08036397,0.00248729,0.05975866,-0.11677844,0, 00:00:17.5
177,-4.43209934,-0.00501806,-0.04371315,-0.03451461,-0.09172151,-0.05749193,-0.06144723,-0.07675610,0.02882907,-0.00862833,-10.64711189,-0.03518533,0.02794134,-0.00511921,-0.06685800,-0.08364397,-0.13876125,-0.08013328,-0.04685152,0.16881680,-0.06740044,-0.08713423,-0.00215385,0.08966060,-0.01292094,-0.05056892,0.05571675,-0.04753125,-0.02155668,0.12154921,0.10495114,-0.02143161,-0.05026725,0.09958073,0.06731796,-0.01916385,0.03586291,-0.01746119,-0.05923540,0.07932438,0.09118176,-0.12746964,-0.04079539,0.01604808,0.09098309,0.00780375,0.01438612,0.05560742,-0.07362823,0.00938588,0.06504356,-0.11122560,0, 00:00:17.6
178,-4.83986187,-0.00289098,-0.04220212,-0.03099552,-0.08905967,-0.05429774,-0.05793680,-0.07493590,0.03136295,-0.00544492,-10.64746189,-0.03344807,0.03015995,-0.00242639,-0.05135864,-0.08113150,-0.13650052,-0.07819521,-0.04294715,0.17248484,-0.06484127,-0.08505026,-0.00068584,0.09417835,-0.00948140,-0.04733284,0.05754042,-0.04487040,-0.01833055,0.12662847,0.10776889,-0.01882479,-0.04792564,0.10316160,0.07090032,-0.01538890,0.03962246,-0.01305148,-0.05454608,0.08603160,0.09483934,-0.12410279,-0.03786119,0.02005768,0.09441032,0.01156528,0.01803376,0.05962127,-0.06743681,0.01550031,0.07006299,-0.10589436,0, 00:00:17.7
179,-5.28569508,-0.00240071,-0.04174975,-0.03093089,-0.11308280,-0.05203063,-0.05729315,-0.07594393,0.03154057,-0.00444857,-10.60653400,-0.03264030,0.03125728,-0.00107419,-0.04577303,-0.07990084,-0.13596350,-0.07880130,-0.04300622,0.17474397,-0.06403204,-0.08634768,0.00134558,0.09640434,-0.00765114,-0.04515646,0.05844295,-0.04378963,-0.01681025,0.12945525,0.10837496,-0.01713261,-0.04625598,0.10546321,0.07292924,-0.01351251,0.04185846,-0.01058843,-0.05336570,0.08912433,0.09730574,-0.12451120,-0.03753565,0.02111223,0.09639028,0.01345005,0.01928688,0.06176018,-0.06646530,0.01708532,0.07264321,-0.10396697,0, 00:00:17.8
180,-5.31569433,-0.00273040,-0.04252571,-0.03178095,-0.10774795,-0.04886764,-0.05813217,-0.07920961,0.02967208,-0.00491142,-10.58203602,-0.03310578,0.03121861,-0.00137173,-0.04054603,-0.08044194,-0.13622172,-0.08159468,-0.04581795,0.17519471,-0.06558255,-0.08666316,0.00272965,0.09656716,-0.00825167,-0.04496869,0.05767807,-0.04476443,-0.01730102,0.12993832,0.10767850,-0.01688745,-0.04718651,0.10596478,0.07323807,-0.01413707,0.04193612,-0.01116203,-0.05603307,0.08895582,0.09830528,-0.12766260,-0.03861698,0.02087103,0.09645113,0.01301430,0.01806583,0.06147714,-0.07078123,0.01439306,0.07277968,-0.10544474,0, 00:00:17.9
181,-5.16069508,-0.00365019,-0.04394143,-0.03375295,-0.09926908,-0.04845449,-0.06025056,-0.08255608,0.02761334,-0.00607122,-10.58601570,-0.03381285,0.03046251,-0.00218081,-0.03183187,-0.08197598,-0.13725978,-0.08471461,-0.04879635,0.17487025,-0.06777923,-0.09256457,0.00319692,0.09639187,-0.00972718,-0.04580507,0.05612633,-0.04643567,-0.01860574,0.12929012,0.10656500,-0.01718712,-0.04902029,0.10603346,0.07254292,-0.01573534,0.04127018,-0.01318168,-0.05936047,0.08758725,0.09837791,-0.13264756,-0.04051953,0.02079842,0.09570069,0.01148304,0.01602270,0.06023485,-0.07584102,0.01102879,0.07207263,-0.10687934,0, 00:00:18.0
182,-5.16076279,-0.00414133,-0.04518057,-0.03579785,-0.12622488,-0.04880968,-0.06122589,-0.08510734,0.02584218,-0.00705488,-10.58733082,-0.03452184,0.02979051,-0.00324365,-0.02917310,-0.08413766,-0.13948052,-0.08730593,-0.05090410,0.17440045,-0.06958915,-0.09496830,0.00331172,0.09532838,-0.01120695,-0.04688862,0.05415111,-0.04791939,-0.01996145,0.12871028,0.10599722,-0.01835444,-0.04919161,0.10586554,0.07135910,-0.01735883,0.04021908,-0.01549288,-0.06199804,0.08633801,0.09804808,-0.13557000,-0.04175116,0.02037999,0.09469924,0.00986573,0.01407684,0.05889949,-0.08004856,0.00854901,0.07133043,-0.10776524,0, 00:00:18.1
183,-5.26771212,-0.00379175,-0.04507994,-0.03802788,-0.13123223,-0.04603039,-0.06125829,-0.08418958,0.02680331,-0.00612301,-11.02125359,-0.03437186,0.03036233,-0.00355817,-0.02850967,-0.08525255,-0.13974980,-0.08706988,-0.04906728,0.17531054,-0.06956206,-0.09453665,0.00264192,0.09565415,-0.01130046,-0.04714344,0.05286245,-0.04764649,-0.01959952,0.12927464,0.10581076,-0.01845670,-0.04890347,0.10669474,0.07138444,-0.01726221,0.04027638,-0.01560100,-0.06010242,0.08826818,0.09895682,-0.13792492,-0.04078138,0.02057360,0.09474034,0.01007132,0.01437783,0.05928503,-0.07816665,0.01125204,0.07262969,-0.10516463,0, 00:00:18.2
184,-5.38996267,-0.00212176,-0.04371022,-0.03990391,-0.12868938,-0.04351220,-0.05850332,-0.08076054,0.02950776,-0.00367955,-10.97866154,-0.03313657,0.03175642,-0.00255090,-0.04337773,-0.08463836,-0.13878953,-0.08439072,-0.04447623,0.17780545,-0.06764735,-0.09339157,0.00589842,0.09787135,-0.00959856,-0.04615209,0.05270131,-0.04544446,-0.01758506,0.13245942,0.10697176,-0.01810158,-0.04705708,0.10877436,0.07305078,-0.01500061,0.04164199,-0.01333271,-0.05446381,0.09306728,0.10100601,-0.13551369,-0.03840328,0.02308612,0.09570785,0.01211201,0.01654668,0.06150572,-0.07157582,0.01779735,0.07578831,-0.10062337,0, 00:00:18.3
185,-5.82522964,-0.00050276,-0.04234802,-0.03920724,-0.13712595,-0.04188122,-0.05675957,-0.07764373,0.03233032,-0.00121218,-10.59544945,-0.03183455,0.03330188,-0.00135386,-0.02395816,-0.08302909,-0.13575441,-0.08188947,-0.03966634,0.18061610,-0.06613181,-0.09054308,0.01005435,0.09999021,-0.00752412,-0.04472480,0.05316196,-0.04302278,-0.01523888,0.13574405,0.10892047,-0.01705236,-0.04520463,0.11100376,0.07538827,-0.01217018,0.04329762,-0.01029104,-0.04857489,0.09813876,0.10340769,-0.13370436,-0.03594292,0.02584068,0.09725748,0.01435326,0.01890566,0.06413905,-0.06461791,0.02438867,0.07900919,-0.09593204,0, 00:00:18.4
