Header
File Version,1.24
Patient Information
ID,10024
Name,
Comment,VFT (7-10-13) trial 2,,
Birth Date,0000/00/00
Age, 60y
Sex,Male
Analyze Information
AnalyzeMode,Integral
Pre Time[s],10.0
Post Time[s],5.0
Recovery Time[s],50.0
Base Time[s],5
Fitting Degree,1
HPF[Hz],No Filter
LPF[Hz],No Filter
Moving Average[s],5.0
Measure Information
Date,2015/04/21 13:14
Probe Type,adult
Mode,3x11
Wave[nm],695,830
Wave Length,CH1(703.0),CH1(827.2),CH2(703.0),CH2(826.5),CH3(703.0),CH3(826.5),CH4(703.0),CH4(827.2),CH5(703.0),CH5(827.2),CH6(703.0),CH6(827.2),CH7(703.0),CH7(827.2),CH8(703.7),CH8(827.2),CH9(703.7),CH9(827.2),CH10(704.5),CH10(827.9),CH11(703.0),CH11(827.2),CH12(703.7),CH12(827.2),CH13(703.0),CH13(826.5),CH14(703.7),CH14(827.2),CH15(703.0),CH15(827.2),CH16(703.0),CH16(827.9),CH17(703.0),CH17(827.2),CH18(704.5),CH18(826.5),CH19(703.7),CH19(827.2),CH20(704.5),CH20(826.5),CH21(704.5),CH21(827.9),CH22(703.7),CH22(827.2),CH23(703.7),CH23(827.2),CH24(703.7),CH24(827.2),CH25(703.7),CH25(827.2),CH26(703.0),CH26(827.9),CH27(703.0),CH27(827.9),CH28(704.5),CH28(826.5),CH29(704.5),CH29(826.5),CH30(704.5),CH30(826.5),CH31(704.5),CH31(826.5),CH32(703.7),CH32(826.5),CH33(703.7),CH33(827.2),CH34(704.5),CH34(826.5),CH35(703.7),CH35(827.2),CH36(703.0),CH36(826.5),CH37(703.0),CH37(827.9),CH38(704.5),CH38(826.5),CH39(704.5),CH39(826.5),CH40(703.7),CH40(827.2),CH41(704.5),CH41(826.5),CH42(704.5),CH42(825.7),CH43(703.7),CH43(826.5),CH44(704.5),CH44(826.5),CH45(704.5),CH45(826.5),CH46(703.0),CH46(826.5),CH47(703.0),CH47(826.5),CH48(704.5),CH48(826.5),CH49(704.5),CH49(826.5),CH50(703.7),CH50(827.2),CH51(703.7),CH51(827.2),CH52(704.5),CH52(825.7)
Analog Gain,6.58823500,6.58823500,6.58823500,6.58823500,4.86274500,4.86274500,4.86274500,4.86274500,8.07843100,8.07843100,8.07843100,8.07843100,1.25490200,1.25490200,1.25490200,1.25490200,5.33333300,5.33333300,5.33333300,5.33333300,14.50980400,14.50980400,6.58823500,6.58823500,1.25490200,1.25490200,4.86274500,4.86274500,1.25490200,1.25490200,8.07843100,8.07843100,1.25490200,1.25490200,1.25490200,1.25490200,1.25490200,1.25490200,5.33333300,5.33333300,22.74509800,22.74509800,14.50980400,14.50980400,1.25490200,1.25490200,1.25490200,1.25490200,1.25490200,1.25490200,1.25490200,1.25490200,1.25490200,1.25490200,1.25490200,1.25490200,1.25490200,1.25490200,1.25490200,1.25490200,22.74509800,22.74509800,14.50980400,14.50980400,13.41176500,13.41176500,1.25490200,1.25490200,1.25490200,1.25490200,1.25490200,1.25490200,1.25490200,1.25490200,1.25490200,1.25490200,1.25490200,1.25490200,1.25490200,1.25490200,5.64705900,5.64705900,22.74509800,22.74509800,13.41176500,13.41176500,13.41176500,13.41176500,1.25490200,1.25490200,1.25490200,1.25490200,1.25490200,1.25490200,1.25490200,1.25490200,1.25490200,1.25490200,1.25490200,1.25490200,5.64705900,5.64705900,5.64705900,5.64705900
Digital Gain,13.91000000,4.21000000,13.38000000,4.03000000,9.68000000,3.71000000,54.16000000,11.16000000,46.06000000,6.39000000,8.10000000,2.06000000,23.81000000,7.33000000,7.25000000,2.91000000,5.82000000,2.04000000,31.20000000,7.89000000,10.98000000,2.70000000,11.80000000,3.63000000,24.66000000,7.76000000,6.97000000,2.55000000,163.00000000,67.48000000,26.20000000,5.62000000,65.48000000,21.74000000,15.68000000,7.12000000,16.04000000,7.42000000,19.73000000,7.41000000,20.30000000,4.77000000,20.67000000,5.18000000,110.53000000,30.42000000,30.94000000,9.58000000,14.70000000,5.09000000,109.77000000,32.55000000,59.62000000,19.05000000,8.43000000,4.21000000,15.72000000,7.98000000,43.84000000,21.59000000,6.70000000,2.26000000,17.76000000,4.14000000,14.04000000,3.53000000,22.91000000,9.00000000,24.71000000,9.36000000,14.57000000,8.02000000,125.03000000,47.57000000,10.78000000,7.77000000,13.46000000,7.36000000,15.37000000,10.26000000,7.89000000,3.15000000,26.32000000,8.21000000,23.79000000,6.97000000,8.44000000,2.98000000,20.17000000,10.56000000,12.54000000,6.88000000,4.72000000,2.88000000,3.75000000,1.93000000,7.65000000,6.62000000,15.36000000,12.41000000,4.55000000,3.40000000,24.34000000,12.28000000
Sampling Period[s],0.1
StimType,STIM(VFT)
Stim Time[s]
A,60,B,15,C,15,D,15,E,15,F,15,G,15,H,15,I,15,J,15
Repeat Count,1
Exception Ch,0,0,0,0,0,0,0,0,0,0,0,0,0,0,1,0,0,0,0,0,0,0,0,0,0,0,0,0,0,0,0,0,0,0,0,0,0,0,0,0,0,0,0,0,0,0,0,0,0,0,0,0






Data
Probe1(Oxy),CH1,CH2,CH3,CH4,CH5,CH6,CH7,CH8,CH9,CH10,CH11,CH12,CH13,CH14,CH15,CH16,CH17,CH18,CH19,CH20,CH21,CH22,CH23,CH24,CH25,CH26,CH27,CH28,CH29,CH30,CH31,CH32,CH33,CH34,CH35,CH36,CH37,CH38,CH39,CH40,CH41,CH42,CH43,CH44,CH45,CH46,CH47,CH48,CH49,CH50,CH51,CH52,Mark,Time,BodyMovement,RemovalMark,PreScan
1,-0.01918403,-0.01795299,-0.02610370,-0.02231366,-0.01142706,-0.01783576,-0.02889926,-0.02603611,-0.03128843,-0.04906476,-0.01743950,-0.05993061,-0.02564614,-0.02939180,-0.02140588,-0.01431165,-0.00884535,-0.02048535,-0.02247818,-0.05247397,-0.04883158,-0.10813046,-0.08167554,-0.03254245,-0.02795443,-0.03087704,-0.01013693,0.02299785,-0.03455048,-0.05351269,-0.01113616,-0.06927805,-0.07380661,-0.03189215,-0.08838203,-0.06428672,-0.06829348,-0.02243865,-0.01136352,-0.05548466,-0.05173179,-0.03609122,-0.12098805,-0.02727323,-0.07278299,-0.07972815,-0.09173167,-0.13169874,-0.07395840,-0.02771587,-0.07294428,-0.07739741,0, 00:00:00.0
2,-0.01908665,-0.01831339,-0.02569614,-0.02184213,-0.01146194,-0.01797738,-0.02765482,-0.02497406,-0.03192547,-0.04911390,-0.01784740,-0.06032085,-0.02599449,-0.02887052,-0.02146464,-0.01485387,-0.00958915,-0.01960055,-0.02217626,-0.05351364,-0.04775487,-0.10583300,-0.08137148,-0.03223895,-0.02777164,-0.03081648,-0.01141468,0.02134335,-0.03492611,-0.05278040,-0.00904062,-0.06883400,-0.07323103,-0.03247305,-0.08755641,-0.06291181,-0.06741033,-0.02371578,-0.01207908,-0.05434882,-0.05109956,-0.03619566,-0.11787349,-0.02412513,-0.07201698,-0.07885591,-0.09095855,-0.13006206,-0.07433659,-0.02746259,-0.06823213,-0.07795082,0, 00:00:00.1
3,-0.01842153,-0.01783895,-0.02473775,-0.02033078,-0.01008658,-0.01727793,-0.02627671,-0.02368856,-0.03196898,-0.04859817,-0.01789165,-0.05967943,-0.02587232,-0.02783000,-0.02029521,-0.01388995,-0.00910949,-0.01825101,-0.02149302,-0.05396575,-0.04616099,-0.10305666,-0.08000018,-0.03147010,-0.02648352,-0.02958996,-0.01099371,0.02154303,-0.03454960,-0.05155320,-0.00729762,-0.06769788,-0.07188183,-0.03262464,-0.08599669,-0.06018987,-0.06622073,-0.02348283,-0.01152725,-0.05291317,-0.05026247,-0.03638125,-0.11422081,-0.02216331,-0.07067595,-0.07681055,-0.08900893,-0.12802932,-0.07329015,-0.02609299,-0.06424058,-0.07818715,0, 00:00:00.2
4,-0.01806433,-0.01769406,-0.02423608,-0.02007497,-0.00996788,-0.01700494,-0.02575256,-0.02325436,-0.03192121,-0.04811770,-0.01796517,-0.05919830,-0.02594350,-0.02733959,-0.02043562,-0.01335129,-0.00881973,-0.01772691,-0.02137089,-0.05418346,-0.04609106,-0.10041615,-0.07864019,-0.03102612,-0.02588417,-0.02912613,-0.01069538,0.02149787,-0.03422516,-0.05047341,-0.00678145,-0.06691267,-0.07079624,-0.03311879,-0.08494455,-0.05841585,-0.06545446,-0.02320267,-0.01118466,-0.05217494,-0.04944196,-0.03700721,-0.11129912,-0.02171938,-0.06883405,-0.07535156,-0.08711261,-0.12613389,-0.07230073,-0.02597746,-0.06215825,-0.07880489,0, 00:00:00.3
5,-0.01781956,-0.01770216,-0.02404395,-0.01952682,-0.01029628,-0.01699278,-0.02564749,-0.02322247,-0.03184244,-0.04787449,-0.01811736,-0.05895123,-0.02603960,-0.02721090,-0.02104852,-0.01386392,-0.00888465,-0.01771622,-0.02142779,-0.05366114,-0.04667668,-0.09797456,-0.07757150,-0.03075833,-0.02570250,-0.02935068,-0.01068999,0.02091960,-0.03410488,-0.04986583,-0.00687937,-0.06617554,-0.06989861,-0.03366979,-0.08401424,-0.05737470,-0.06513219,-0.02320008,-0.01130334,-0.05207577,-0.04898296,-0.03781281,-0.10892519,-0.02191658,-0.06662632,-0.07448236,-0.08538344,-0.12463872,-0.07147997,-0.02651776,-0.06126951,-0.07928962,0, 00:00:00.4
6,-0.01820550,-0.01837428,-0.02454178,-0.01988379,-0.01126638,-0.01751008,-0.02652868,-0.02410983,-0.03196631,-0.04816044,-0.01876126,-0.05920979,-0.02639455,-0.02773593,-0.02037216,-0.01491421,-0.00946476,-0.01872420,-0.02192018,-0.05324505,-0.04800720,-0.09577440,-0.07693885,-0.03090797,-0.02641225,-0.03031239,-0.01147295,0.01943123,-0.03455774,-0.04960505,-0.00780213,-0.06574042,-0.06945992,-0.03439091,-0.08351558,-0.05745296,-0.06575969,-0.02384811,-0.01198078,-0.05303989,-0.04893225,-0.03975079,-0.10726767,-0.02258604,-0.06496548,-0.07437970,-0.08416004,-0.12313406,-0.07125437,-0.02870755,-0.06209023,-0.08054017,0, 00:00:00.5
7,-0.01930085,-0.01929050,-0.02541530,-0.02079010,-0.01255536,-0.01849090,-0.02829697,-0.02571641,-0.03241352,-0.04882373,-0.01981416,-0.06000744,-0.02688438,-0.02889761,-0.02092661,-0.01672923,-0.01111124,-0.02060096,-0.02290653,-0.05350324,-0.05023513,-0.09492352,-0.07652868,-0.03152164,-0.02789576,-0.03123142,-0.01280588,0.01709387,-0.03545119,-0.04990254,-0.00948761,-0.06565648,-0.06915201,-0.03532891,-0.08349630,-0.05842341,-0.06667635,-0.02499679,-0.01327280,-0.05483733,-0.04925217,-0.04191443,-0.10638102,-0.02371731,-0.06419484,-0.07486793,-0.08346921,-0.12119652,-0.07175682,-0.03215284,-0.06395914,-0.08206665,0, 00:00:00.6
8,-0.01993439,-0.01984126,-0.02566345,-0.02176063,-0.01367916,-0.01945087,-0.02899166,-0.02624254,-0.03276725,-0.04912907,-0.02078824,-0.06026935,-0.02736878,-0.02939782,-0.02250877,-0.01800983,-0.01290917,-0.02146052,-0.02353446,-0.05354242,-0.05094050,-0.09425352,-0.07630564,-0.03212668,-0.02900795,-0.03255897,-0.01408390,0.01486939,-0.03595449,-0.05002477,-0.01082445,-0.06570907,-0.06835139,-0.03599278,-0.08333672,-0.05884252,-0.06783905,-0.02623534,-0.01441941,-0.05478525,-0.04914463,-0.04280594,-0.10495198,-0.02453763,-0.06348807,-0.07513827,-0.08268565,-0.11901474,-0.07229745,-0.03358667,-0.06326518,-0.08274867,0, 00:00:00.7
9,-0.01910492,-0.01895980,-0.02420701,-0.02044740,-0.01317314,-0.01889619,-0.02709320,-0.02452393,-0.03221443,-0.04804325,-0.02091557,-0.05880308,-0.02714528,-0.02792338,-0.02228246,-0.01738026,-0.01248575,-0.01968403,-0.02261474,-0.05295879,-0.04853706,-0.09211017,-0.07464409,-0.03150350,-0.02760448,-0.03180593,-0.01366618,0.01514313,-0.03479840,-0.04849236,-0.01071841,-0.06437198,-0.06648722,-0.03578889,-0.08160653,-0.05609846,-0.06651258,-0.02576159,-0.01371573,-0.05141917,-0.04790258,-0.04223355,-0.10222959,-0.02430031,-0.06173271,-0.07314327,-0.08030169,-0.11684139,-0.07126848,-0.03059413,-0.05869774,-0.08154164,0, 00:00:00.8
10,-0.01823636,-0.01789236,-0.02269906,-0.01939551,-0.01273795,-0.01787552,-0.02567808,-0.02302475,-0.03128453,-0.04695665,-0.02062938,-0.05681356,-0.02664338,-0.02644559,-0.02199125,-0.01587907,-0.01098375,-0.01788912,-0.02153855,-0.05168797,-0.04682771,-0.08944841,-0.07277589,-0.03052263,-0.02581725,-0.03026713,-0.01260389,0.01685168,-0.03329711,-0.04673637,-0.01038083,-0.06257306,-0.06408052,-0.03513635,-0.07919826,-0.05287914,-0.06425669,-0.02417143,-0.01224553,-0.04849893,-0.04650087,-0.04252428,-0.09917534,-0.02402166,-0.05997979,-0.07049502,-0.07710523,-0.11419996,-0.06928170,-0.02783523,-0.05542783,-0.08041530,0, 00:00:00.9
11,-0.01752041,-0.01706953,-0.02156642,-0.01861061,-0.01197647,-0.01711487,-0.02454660,-0.02191759,-0.03037562,-0.04580059,-0.02039984,-0.05522398,-0.02619156,-0.02530609,-0.02100100,-0.01479890,-0.00990665,-0.01647192,-0.02057875,-0.05045991,-0.04529066,-0.08693002,-0.07102366,-0.02961845,-0.02448743,-0.02878257,-0.01189367,0.01826763,-0.03188413,-0.04517107,-0.01012805,-0.06047469,-0.06187034,-0.03445372,-0.07693084,-0.05013441,-0.06219237,-0.02265905,-0.01083608,-0.04615352,-0.04520110,-0.04297208,-0.09662686,-0.02360852,-0.05838668,-0.06784735,-0.07386477,-0.11142689,-0.06727338,-0.02580795,-0.05285778,-0.07951325,0, 00:00:01.0
12,-0.01701883,-0.01656027,-0.02071040,-0.01843088,-0.01151610,-0.01673835,-0.02408162,-0.02130673,-0.02950614,-0.04489771,-0.02039362,-0.05395064,-0.02577164,-0.02452646,-0.02050868,-0.01427986,-0.00901821,-0.01566806,-0.02000669,-0.04943360,-0.04455551,-0.08436758,-0.06975790,-0.02897105,-0.02356568,-0.02798879,-0.01119319,0.01913247,-0.03073507,-0.04382021,-0.01025354,-0.05910769,-0.05986521,-0.03381367,-0.07482485,-0.04793913,-0.06050997,-0.02128161,-0.00968276,-0.04467715,-0.04409439,-0.04364088,-0.09449968,-0.02342045,-0.05684121,-0.06551468,-0.07081246,-0.10856380,-0.06536825,-0.02494582,-0.05155569,-0.07888900,0, 00:00:01.1
13,-0.01700383,-0.01643366,-0.02046502,-0.01899863,-0.01169221,-0.01687353,-0.02456020,-0.02150250,-0.02886849,-0.04429483,-0.02065638,-0.05325614,-0.02558341,-0.02433382,-0.02068853,-0.01463263,-0.00910517,-0.01578820,-0.01984181,-0.04816641,-0.04500842,-0.08266996,-0.06868815,-0.02867569,-0.02351128,-0.02794687,-0.01123621,0.01904245,-0.03004293,-0.04296685,-0.01069572,-0.05834623,-0.05859226,-0.03357578,-0.07333067,-0.04680678,-0.05893083,-0.02052336,-0.00911417,-0.04435239,-0.04331229,-0.04438891,-0.09233204,-0.02362397,-0.05557879,-0.06381219,-0.06841421,-0.10619462,-0.06401861,-0.02574510,-0.05164756,-0.07870384,0, 00:00:01.2
14,-0.01755800,-0.01685952,-0.02068204,-0.01936759,-0.01246898,-0.01747726,-0.02562197,-0.02238569,-0.02853677,-0.04407764,-0.02126427,-0.05300026,-0.02567209,-0.02473668,-0.02114021,-0.01571141,-0.00979296,-0.01675478,-0.02015804,-0.04752014,-0.04632299,-0.08120733,-0.06797057,-0.02882733,-0.02416782,-0.02831488,-0.01170797,0.01802207,-0.02981783,-0.04255580,-0.01148862,-0.05784669,-0.05770960,-0.03356717,-0.07238382,-0.04674344,-0.05802615,-0.02046950,-0.00923123,-0.04493943,-0.04291818,-0.04540446,-0.09068252,-0.02413723,-0.05466430,-0.06285974,-0.06673511,-0.10452513,-0.06341451,-0.02760999,-0.05275802,-0.07908091,0, 00:00:01.3
15,-0.01757340,-0.01670496,-0.02020930,-0.01910578,-0.01239329,-0.01773426,-0.02549648,-0.02200957,-0.02806749,-0.04345925,-0.02144288,-0.05220148,-0.02557002,-0.02439327,-0.02061025,-0.01650590,-0.01025170,-0.01648910,-0.01999593,-0.04671822,-0.04605447,-0.07939401,-0.06675491,-0.02859200,-0.02419783,-0.02837504,-0.01213745,0.01716451,-0.02912415,-0.04143357,-0.01172016,-0.05704382,-0.05632615,-0.03325347,-0.07098122,-0.04589381,-0.05700178,-0.02042424,-0.00913224,-0.04348454,-0.04204233,-0.04500343,-0.08863829,-0.02434056,-0.05344987,-0.06149234,-0.06499793,-0.10319015,-0.06290655,-0.02720843,-0.05091077,-0.07841898,0, 00:00:01.4
16,-0.01628071,-0.01553923,-0.01857345,-0.01792723,-0.01125429,-0.01682280,-0.02380545,-0.02032322,-0.02705735,-0.04201624,-0.02084744,-0.05020624,-0.02491339,-0.02282150,-0.01945752,-0.01535706,-0.00931443,-0.01464005,-0.01880927,-0.04537169,-0.04360264,-0.07682015,-0.06480842,-0.02761567,-0.02253253,-0.02721064,-0.01148294,0.01811329,-0.02741329,-0.03961229,-0.01108519,-0.05521230,-0.05421940,-0.03245321,-0.06839548,-0.04280576,-0.05469409,-0.01917178,-0.00778978,-0.04030396,-0.04048373,-0.04352665,-0.08567871,-0.02372521,-0.05162812,-0.05864661,-0.06211988,-0.10170301,-0.06115631,-0.02431686,-0.04722326,-0.07645107,0, 00:00:01.5
17,-0.01534390,-0.01445760,-0.01730703,-0.01699870,-0.01019135,-0.01604327,-0.02267120,-0.01912919,-0.02593144,-0.04048138,-0.02028745,-0.04842870,-0.02411912,-0.02147966,-0.01824761,-0.01436973,-0.00822596,-0.01311706,-0.01771842,-0.04380786,-0.04173268,-0.07420006,-0.06296990,-0.02657767,-0.02104360,-0.02578843,-0.01074921,0.01936897,-0.02575064,-0.03795186,-0.01053437,-0.05372452,-0.05211257,-0.03154359,-0.06594986,-0.04000098,-0.05190968,-0.01753050,-0.00625502,-0.03799263,-0.03899784,-0.04218617,-0.08282357,-0.02296486,-0.04987695,-0.05571138,-0.05915352,-0.10004344,-0.05915550,-0.02231771,-0.04482476,-0.07467695,0, 00:00:01.6
18,-0.01450503,-0.01369430,-0.01639817,-0.01643424,-0.00961587,-0.01529386,-0.02159644,-0.01807551,-0.02460354,-0.03893474,-0.01952239,-0.04681734,-0.02330622,-0.02047653,-0.01712229,-0.01361122,-0.00740994,-0.01192858,-0.01669792,-0.04206533,-0.04049944,-0.07140762,-0.06083577,-0.02538405,-0.01985172,-0.02443868,-0.01011530,0.02004307,-0.02434689,-0.03657395,-0.01013872,-0.05215456,-0.05053233,-0.03054769,-0.06356904,-0.03779906,-0.05022186,-0.01635467,-0.00517473,-0.03611371,-0.03749443,-0.04133261,-0.07993378,-0.02199271,-0.04812370,-0.05299130,-0.05639556,-0.09739780,-0.05719601,-0.02085277,-0.04303787,-0.07294283,0, 00:00:01.7
19,-0.01390419,-0.01327849,-0.01587123,-0.01587883,-0.00919824,-0.01462147,-0.02075676,-0.01743424,-0.02334080,-0.03754633,-0.01889599,-0.04547539,-0.02248441,-0.01979285,-0.01647840,-0.01282777,-0.00699285,-0.01130984,-0.01582386,-0.04024087,-0.04009809,-0.06922822,-0.05908893,-0.02420200,-0.01904676,-0.02346246,-0.00966806,0.02004253,-0.02340038,-0.03536072,-0.01013324,-0.05058723,-0.04958188,-0.02967806,-0.06144388,-0.03636016,-0.04796052,-0.01561714,-0.00468350,-0.03509169,-0.03620305,-0.04126790,-0.07793204,-0.02117897,-0.04640415,-0.05073527,-0.05390201,-0.09375212,-0.05522700,-0.02046864,-0.04245060,-0.07159179,0, 00:00:01.8
20,-0.01365817,-0.01331975,-0.01579881,-0.01575176,-0.00898779,-0.01434797,-0.02069687,-0.01735457,-0.02233366,-0.03636147,-0.01842764,-0.04472838,-0.02191010,-0.01961550,-0.01641660,-0.01253320,-0.00705515,-0.01133953,-0.01534843,-0.03841867,-0.04010773,-0.06738106,-0.05761890,-0.02347022,-0.01878427,-0.02317333,-0.00954196,0.01932816,-0.02288567,-0.03452109,-0.01050004,-0.04929897,-0.04893688,-0.02904447,-0.05974371,-0.03574250,-0.04639734,-0.01525925,-0.00460755,-0.03481014,-0.03530820,-0.04141269,-0.07631545,-0.02058453,-0.04493951,-0.04904192,-0.05189902,-0.09042844,-0.05361270,-0.02099157,-0.04280427,-0.07057764,0, 00:00:01.9
21,-0.01369144,-0.01356331,-0.01594512,-0.01611935,-0.00940636,-0.01446491,-0.02094978,-0.01756429,-0.02151584,-0.03569797,-0.01833714,-0.04438053,-0.02151616,-0.01977960,-0.01644897,-0.01276921,-0.00746877,-0.01176142,-0.01517791,-0.03704076,-0.04052647,-0.06593134,-0.05654387,-0.02312811,-0.01900826,-0.02293431,-0.00987412,0.01803705,-0.02267983,-0.03394718,-0.01095486,-0.04840289,-0.04853803,-0.02857020,-0.05838547,-0.03564681,-0.04495202,-0.01520424,-0.00497079,-0.03463864,-0.03472087,-0.04178810,-0.07511155,-0.02015830,-0.04389680,-0.04778873,-0.05029479,-0.08689051,-0.05240846,-0.02183885,-0.04317579,-0.07011772,0, 00:00:02.0
22,-0.01305859,-0.01314030,-0.01517821,-0.01508293,-0.00925349,-0.01404727,-0.01973313,-0.01643578,-0.02048531,-0.03415189,-0.01787596,-0.04325511,-0.02086757,-0.01890150,-0.01634743,-0.01237981,-0.00722453,-0.01073582,-0.01425481,-0.03543641,-0.03894952,-0.06405709,-0.05513992,-0.02223551,-0.01819908,-0.02223924,-0.00976268,0.01751813,-0.02179599,-0.03272141,-0.01071758,-0.04714567,-0.04755133,-0.02780163,-0.05647387,-0.03412782,-0.04286721,-0.01473761,-0.00468817,-0.03226964,-0.03354897,-0.04120867,-0.07302339,-0.01932685,-0.04245967,-0.04563690,-0.04807007,-0.08223692,-0.05088266,-0.02009574,-0.04053633,-0.06852683,0, 00:00:02.1
23,-0.01192851,-0.01221743,-0.01384753,-0.01377129,-0.00806950,-0.01286226,-0.01784904,-0.01471348,-0.01907672,-0.03207135,-0.01691593,-0.04147175,-0.01998089,-0.01738387,-0.01498438,-0.01073833,-0.00595336,-0.00889349,-0.01287793,-0.03356841,-0.03689872,-0.06166327,-0.05290472,-0.02075688,-0.01631429,-0.02078262,-0.00850458,0.01853999,-0.02026422,-0.03083083,-0.00999488,-0.04511101,-0.04600224,-0.02656948,-0.05377427,-0.03121772,-0.04069685,-0.01313632,-0.00328961,-0.02947527,-0.03195936,-0.03997049,-0.07013544,-0.01811908,-0.04056092,-0.04254368,-0.04509754,-0.07813940,-0.04835290,-0.01706419,-0.03731144,-0.06635640,0, 00:00:02.2
24,-0.01116418,-0.01152710,-0.01272706,-0.01266576,-0.00703138,-0.01190194,-0.01660188,-0.01352575,-0.01781916,-0.03011221,-0.01607021,-0.03989846,-0.01914928,-0.01623199,-0.01490671,-0.00954979,-0.00492376,-0.00749433,-0.01185975,-0.03162957,-0.03494113,-0.05936590,-0.05136997,-0.01952658,-0.01481386,-0.01913574,-0.00728151,0.01960966,-0.01879417,-0.02927267,-0.00920952,-0.04327660,-0.04445348,-0.02547151,-0.05129154,-0.02887202,-0.03865366,-0.01145254,-0.00191817,-0.02771987,-0.03028739,-0.03855556,-0.06747966,-0.01720181,-0.03875120,-0.03969879,-0.04230804,-0.07486386,-0.04578128,-0.01515103,-0.03523247,-0.06465635,0, 00:00:02.3
25,-0.01056671,-0.01098446,-0.01192640,-0.01196233,-0.00673284,-0.01140006,-0.01601318,-0.01284490,-0.01670532,-0.02846875,-0.01548497,-0.03851310,-0.01835324,-0.01544957,-0.01491854,-0.00904086,-0.00421723,-0.00662839,-0.01121476,-0.03001375,-0.03342964,-0.05740036,-0.04951102,-0.01856710,-0.01377655,-0.01781788,-0.00637497,0.02027914,-0.01746681,-0.02821979,-0.00866833,-0.04170045,-0.04280963,-0.02447009,-0.04900771,-0.02702171,-0.03618839,-0.00998895,-0.00076783,-0.02684026,-0.02874916,-0.03725151,-0.06529427,-0.01646280,-0.03722848,-0.03721707,-0.03977267,-0.07180547,-0.04337367,-0.01441350,-0.03408838,-0.06305702,0, 00:00:02.4
26,-0.01045707,-0.01069215,-0.01159895,-0.01195816,-0.00672206,-0.01133459,-0.01622257,-0.01292309,-0.01583230,-0.02710600,-0.01530068,-0.03783352,-0.01782572,-0.01520686,-0.01449840,-0.00916126,-0.00411005,-0.00664236,-0.01105868,-0.02875098,-0.03303795,-0.05598971,-0.04803397,-0.01796074,-0.01352545,-0.01729799,-0.00597562,0.02028677,-0.01660386,-0.02752056,-0.00856615,-0.04040574,-0.04162657,-0.02372169,-0.04718383,-0.02601887,-0.03484402,-0.00908138,-0.00007091,-0.02703667,-0.02757291,-0.03666520,-0.06357452,-0.01588397,-0.03621847,-0.03539987,-0.03782882,-0.06930859,-0.04162277,-0.01513966,-0.03430993,-0.06215530,0, 00:00:02.5
27,-0.01091535,-0.01119723,-0.01173089,-0.01264011,-0.00789700,-0.01209201,-0.01747617,-0.01391400,-0.01492101,-0.02590005,-0.01561159,-0.03752847,-0.01734209,-0.01548192,-0.01477690,-0.01061697,-0.00516953,-0.00775197,-0.01122554,-0.02729173,-0.03358766,-0.05347350,-0.04627294,-0.01741091,-0.01418545,-0.01737940,-0.00661152,0.01849334,-0.01587681,-0.02692961,-0.00830708,-0.03883354,-0.03938652,-0.02281045,-0.04492435,-0.02536473,-0.03294713,-0.00876791,0.00020694,-0.02809315,-0.02610704,-0.03618677,-0.06014549,-0.01389660,-0.03470794,-0.03324676,-0.03516777,-0.06642064,-0.03978201,-0.01818833,-0.03519152,-0.06190517,0, 00:00:02.6
28,-0.01162174,-0.01177579,-0.01195749,-0.01361040,-0.00895654,-0.01299102,-0.01868570,-0.01493520,-0.01431982,-0.02533334,-0.01610014,-0.03740473,-0.01705860,-0.01592626,-0.01550234,-0.01224979,-0.00649704,-0.00899237,-0.01168031,-0.02599198,-0.03390953,-0.05098700,-0.04449237,-0.01707776,-0.01520816,-0.01790218,-0.00761980,0.01624125,-0.01549138,-0.02634043,-0.00831116,-0.03738477,-0.03760378,-0.02220497,-0.04303163,-0.02507530,-0.03099641,-0.00894433,-0.00013791,-0.02917298,-0.02483525,-0.03525317,-0.05753678,-0.01213836,-0.03331318,-0.03150357,-0.03309961,-0.06397889,-0.03856253,-0.02134714,-0.03583669,-0.06157797,0, 00:00:02.7
29,-0.01109715,-0.01132395,-0.01089909,-0.01274459,-0.00885027,-0.01309332,-0.01794318,-0.01397640,-0.01347243,-0.02361118,-0.01603848,-0.03616680,-0.01641897,-0.01500855,-0.01414758,-0.01262161,-0.00682111,-0.00815914,-0.01107774,-0.02487869,-0.03200344,-0.04749294,-0.04193756,-0.01618659,-0.01474273,-0.01717802,-0.00795445,0.01504016,-0.01418232,-0.02482392,-0.00714899,-0.03531919,-0.03515507,-0.02121687,-0.04038404,-0.02297844,-0.02928511,-0.00872846,0.00027365,-0.02740940,-0.02310116,-0.03286592,-0.05352956,-0.00984713,-0.03123320,-0.02877202,-0.03051539,-0.06167274,-0.03695855,-0.02098917,-0.03276837,-0.05965441,0, 00:00:02.8
30,-0.00996949,-0.01030138,-0.00931159,-0.01110515,-0.00798429,-0.01228236,-0.01642887,-0.01227765,-0.01230636,-0.02130014,-0.01523905,-0.03426989,-0.01536028,-0.01337274,-0.01156228,-0.01154775,-0.00609025,-0.00638591,-0.00979308,-0.02350278,-0.02950450,-0.04356414,-0.03928449,-0.01479950,-0.01304719,-0.01581771,-0.00705492,0.01524661,-0.01240736,-0.02310036,-0.00537575,-0.03273873,-0.03226687,-0.01984517,-0.03699130,-0.01943048,-0.02665069,-0.00756687,0.00160372,-0.02490135,-0.02128651,-0.03023572,-0.04878993,-0.00687722,-0.02870307,-0.02507352,-0.02721539,-0.05922002,-0.03438964,-0.01920876,-0.02922340,-0.05745637,0, 00:00:02.9
31,-0.00889416,-0.00949274,-0.00807051,-0.00980415,-0.00659597,-0.01136266,-0.01513654,-0.01101170,-0.01109436,-0.01918478,-0.01435225,-0.03236249,-0.01427785,-0.01197724,-0.00944729,-0.01053305,-0.00517965,-0.00500085,-0.00867840,-0.02211479,-0.02795211,-0.03990636,-0.03667672,-0.01305616,-0.01153930,-0.01445261,-0.00614917,0.01564547,-0.01074369,-0.02137974,-0.00354426,-0.03011702,-0.02981792,-0.01839619,-0.03372166,-0.01614771,-0.02361627,-0.00614892,0.00297794,-0.02313201,-0.01965382,-0.02823970,-0.04445390,-0.00376977,-0.02637544,-0.02140650,-0.02386605,-0.05637060,-0.03161643,-0.01814238,-0.02697436,-0.05578297,0, 00:00:03.0
32,-0.00891774,-0.00985156,-0.00810369,-0.00943425,-0.00672934,-0.01154075,-0.01556208,-0.01136491,-0.01032313,-0.01818604,-0.01401168,-0.03173134,-0.01367658,-0.01194353,-0.00946638,-0.01094752,-0.00535915,-0.00561836,-0.00852814,-0.02098029,-0.02797274,-0.03695676,-0.03444798,-0.01202275,-0.01150757,-0.01413431,-0.00628598,0.01451617,-0.01017649,-0.02051940,-0.00285958,-0.02778606,-0.02828818,-0.01744832,-0.03138253,-0.01482686,-0.02121080,-0.00583897,0.00318698,-0.02370981,-0.01865444,-0.02789877,-0.04138099,-0.00130747,-0.02486537,-0.01900578,-0.02140801,-0.05346478,-0.02976851,-0.02020967,-0.02789313,-0.05541744,0, 00:00:03.1
33,-0.00949998,-0.01059311,-0.00859896,-0.00977722,-0.00791432,-0.01231597,-0.01657627,-0.01220618,-0.01003417,-0.01791396,-0.01422497,-0.03181203,-0.01349307,-0.01243769,-0.01080647,-0.01227087,-0.00671232,-0.00683145,-0.00889725,-0.02022262,-0.02864118,-0.03460553,-0.03303099,-0.01166460,-0.01247399,-0.01452226,-0.00743187,0.01177368,-0.01046252,-0.02024473,-0.00287608,-0.02615686,-0.02709749,-0.01689574,-0.02986962,-0.01474167,-0.02039103,-0.00674513,0.00234878,-0.02500187,-0.01795104,-0.02804834,-0.03880295,0.00057624,-0.02372441,-0.01772021,-0.01998488,-0.05085471,-0.02890898,-0.02339504,-0.02924974,-0.05517423,0, 00:00:03.2
34,-0.01006543,-0.01130320,-0.00918539,-0.01088842,-0.00896770,-0.01305713,-0.01743549,-0.01306245,-0.00995689,-0.01760933,-0.01460597,-0.03201056,-0.01358592,-0.01301936,-0.01225964,-0.01330896,-0.00805790,-0.00822169,-0.00933339,-0.01952785,-0.02986171,-0.03237092,-0.03215210,-0.01141638,-0.01346534,-0.01535922,-0.00852985,0.00883756,-0.01098100,-0.02016223,-0.00322072,-0.02497766,-0.02621132,-0.01656809,-0.02845383,-0.01485954,-0.01967122,-0.00789390,0.00115836,-0.02637830,-0.01736410,-0.02859950,-0.03636769,0.00196569,-0.02262089,-0.01683963,-0.01889395,-0.04818153,-0.02836181,-0.02643356,-0.03044200,-0.05532579,0, 00:00:03.3
35,-0.00998283,-0.01160756,-0.00918034,-0.01095698,-0.01035262,-0.01341666,-0.01725934,-0.01296534,-0.00981003,-0.01727348,-0.01494842,-0.03165784,-0.01356162,-0.01305586,-0.01284399,-0.01411360,-0.00930012,-0.00859006,-0.00942040,-0.01906975,-0.02980880,-0.03009630,-0.03087821,-0.01110924,-0.01394364,-0.01565588,-0.00929950,0.00635804,-0.01104389,-0.01957021,-0.00300499,-0.02378759,-0.02489910,-0.01633394,-0.02691033,-0.01428219,-0.01863302,-0.00880800,0.00017194,-0.02598698,-0.01626859,-0.02816858,-0.03350047,0.00331295,-0.02118687,-0.01576997,-0.01754294,-0.04441630,-0.02775505,-0.02752260,-0.02905384,-0.05460427,0, 00:00:03.4
36,-0.00885621,-0.01080250,-0.00769928,-0.00961017,-0.00966994,-0.01260395,-0.01552402,-0.01114003,-0.00922131,-0.01568184,-0.01472497,-0.02988618,-0.01297913,-0.01144896,-0.01082193,-0.01305745,-0.00872544,-0.00678215,-0.00845544,-0.01811905,-0.02710925,-0.02682973,-0.02888194,-0.01008740,-0.01239301,-0.01439712,-0.00895344,0.00619261,-0.00982496,-0.01777103,-0.00161736,-0.02191574,-0.02223953,-0.01562764,-0.02423348,-0.01104862,-0.01714789,-0.00814949,0.00078739,-0.02282966,-0.01422288,-0.02611514,-0.02938983,0.00525476,-0.01893674,-0.01294056,-0.01461062,-0.03948745,-0.02583979,-0.02501888,-0.02402320,-0.05261936,0, 00:00:03.5
37,-0.00759050,-0.00973673,-0.00579686,-0.00817180,-0.00838460,-0.01133681,-0.01349190,-0.00925675,-0.00837925,-0.01363297,-0.01414829,-0.02761403,-0.01218566,-0.00954455,-0.00917804,-0.01151487,-0.00744185,-0.00459463,-0.00736973,-0.01692013,-0.02415982,-0.02310746,-0.02591715,-0.00882222,-0.01029967,-0.01250143,-0.00762257,0.00755615,-0.00799752,-0.01581865,0.00015894,-0.01968127,-0.01907896,-0.01452775,-0.02104745,-0.00695197,-0.01444968,-0.00630337,0.00241149,-0.01945266,-0.01179872,-0.02361753,-0.02501536,0.00731527,-0.01650747,-0.00935020,-0.01082483,-0.03424562,-0.02300385,-0.02203497,-0.01895929,-0.05048386,0, 00:00:03.6
38,-0.00662977,-0.00858206,-0.00437785,-0.00753967,-0.00754752,-0.01043386,-0.01247569,-0.00827759,-0.00752072,-0.01228039,-0.01391709,-0.02569371,-0.01141668,-0.00820384,-0.00874128,-0.00991433,-0.00642852,-0.00328418,-0.00665409,-0.01548417,-0.02244906,-0.01966657,-0.02365926,-0.00764582,-0.00878866,-0.01073708,-0.00624453,0.00888625,-0.00637514,-0.01431092,0.00162817,-0.01738918,-0.01592773,-0.01354892,-0.01813850,-0.00345995,-0.01166860,-0.00431237,0.00394118,-0.01744600,-0.00943409,-0.02196978,-0.02098687,0.00923336,-0.01435388,-0.00604775,-0.00695847,-0.02868821,-0.02018411,-0.02074299,-0.01597633,-0.04866974,0, 00:00:03.7
39,-0.00678323,-0.00865630,-0.00413528,-0.00736279,-0.00773205,-0.01065378,-0.01326573,-0.00885885,-0.00711098,-0.01161907,-0.01430769,-0.02492360,-0.01120144,-0.00824178,-0.00906319,-0.01034812,-0.00651457,-0.00380880,-0.00685247,-0.01457688,-0.02211754,-0.01696360,-0.02191246,-0.00731855,-0.00892889,-0.01042553,-0.00600171,0.00856082,-0.00578683,-0.01345048,0.00211470,-0.01605122,-0.01351064,-0.01314163,-0.01618732,-0.00210337,-0.00886239,-0.00354784,0.00435921,-0.01767487,-0.00774647,-0.02139791,-0.01749909,0.01064114,-0.01291823,-0.00423133,-0.00408320,-0.02325087,-0.01841220,-0.02247509,-0.01564058,-0.04805038,0, 00:00:03.8
40,-0.00706580,-0.00898041,-0.00433565,-0.00773010,-0.00877375,-0.01118256,-0.01421045,-0.00968849,-0.00695839,-0.01109503,-0.01498629,-0.02434696,-0.01117515,-0.00855135,-0.00967287,-0.01117765,-0.00732761,-0.00479940,-0.00734820,-0.01403515,-0.02258009,-0.01465886,-0.02039020,-0.00730998,-0.00965202,-0.01059725,-0.00644462,0.00713357,-0.00555736,-0.01276371,0.00226092,-0.01514358,-0.01141535,-0.01303670,-0.01481317,-0.00147227,-0.00820397,-0.00360786,0.00400936,-0.01823791,-0.00628219,-0.02158733,-0.01462475,0.01191287,-0.01173138,-0.00309600,-0.00191379,-0.01823732,-0.01733688,-0.02478427,-0.01540372,-0.04782517,0, 00:00:03.9
41,-0.00769855,-0.00932519,-0.00466251,-0.00862863,-0.01019621,-0.01181885,-0.01527325,-0.01058066,-0.00703739,-0.01126571,-0.01585133,-0.02404658,-0.01127216,-0.00898925,-0.01021543,-0.01189671,-0.00832808,-0.00605455,-0.00800839,-0.01344726,-0.02245666,-0.01258430,-0.01883186,-0.00744490,-0.01060814,-0.01074345,-0.00706367,0.00536424,-0.00558445,-0.01249063,0.00227931,-0.01441264,-0.00960223,-0.01306839,-0.01363613,-0.00105571,-0.00734646,-0.00403724,0.00317419,-0.01878485,-0.00513037,-0.02224664,-0.01198833,0.01317855,-0.01081263,-0.00229535,-0.00007831,-0.01301601,-0.01668323,-0.02718776,-0.01507546,-0.04762200,0, 00:00:04.0
42,-0.00715643,-0.00875769,-0.00383495,-0.00785243,-0.01025574,-0.01159018,-0.01441895,-0.00958287,-0.00679052,-0.01024658,-0.01597134,-0.02273714,-0.01103646,-0.00801530,-0.01020941,-0.01153982,-0.00822083,-0.00521343,-0.00749359,-0.01256333,-0.02048066,-0.00970501,-0.01697948,-0.00706109,-0.01010617,-0.01022839,-0.00684444,0.00465100,-0.00474290,-0.01113503,0.00339770,-0.01298091,-0.00718769,-0.01262371,-0.01162886,0.00121096,-0.00597194,-0.00379885,0.00310323,-0.01629159,-0.00325075,-0.02132422,-0.00807690,0.01514717,-0.00934145,-0.00034596,0.00253133,-0.00717844,-0.01542970,-0.02593639,-0.01084304,-0.04566431,0, 00:00:04.1
43,-0.00538837,-0.00723662,-0.00187907,-0.00633917,-0.00846845,-0.01004277,-0.01187336,-0.00707530,-0.00589541,-0.00805643,-0.01528231,-0.01985949,-0.01015814,-0.00580757,-0.00879897,-0.00935119,-0.00637469,-0.00257319,-0.00594650,-0.01126727,-0.01687157,-0.00563531,-0.01431781,-0.00570031,-0.00758851,-0.00786305,-0.00483415,0.00625836,-0.00275958,-0.00875346,0.00550608,-0.01059823,-0.00388425,-0.01157496,-0.00850036,0.00565122,-0.00368949,-0.00188320,0.00465290,-0.01207517,-0.00066667,-0.01890077,-0.00304668,0.01785924,-0.00701900,0.00328100,0.00652579,-0.00095012,-0.01243665,-0.02192080,-0.00469247,-0.04254659,0, 00:00:04.2
44,-0.00356701,-0.00544926,0.00027643,-0.00443216,-0.00652327,-0.00822143,-0.00915192,-0.00448217,-0.00461395,-0.00567728,-0.01421549,-0.01644204,-0.00905990,-0.00346896,-0.00715272,-0.00656851,-0.00403629,0.00027755,-0.00427222,-0.00950555,-0.01313960,-0.00135702,-0.01101878,-0.00418357,-0.00474435,-0.00495138,-0.00256636,0.00863213,-0.00051629,-0.00610444,0.00727815,-0.00766136,-0.00050358,-0.01023054,-0.00496431,0.01038793,-0.00026302,0.00079125,0.00670898,-0.00775680,0.00212216,-0.01695969,0.00245784,0.02023315,-0.00445407,0.00740062,0.01109843,0.00524954,-0.00868106,-0.01748883,0.00140266,-0.03912904,0, 00:00:04.3
45,-0.00239359,-0.00431908,0.00151529,-0.00311628,-0.00527678,-0.00686202,-0.00798398,-0.00343886,-0.00327353,-0.00365671,-0.01309192,-0.01353393,-0.00806498,-0.00209537,-0.00610865,-0.00476291,-0.00239171,0.00140935,-0.00335790,-0.00748485,-0.01254114,0.00160024,-0.00827403,-0.00298926,-0.00290853,-0.00307172,-0.00080696,0.01024573,0.00122093,-0.00371056,0.00618111,-0.00571241,-0.00033943,-0.00910376,-0.00198595,0.01386761,0.00331445,0.00328210,0.00823846,-0.00552304,0.00249276,-0.01958383,0.00526111,0.01845451,-0.00206116,0.01085048,0.01547878,0.01149025,-0.00514867,-0.01573500,0.00280656,-0.03556651,0, 00:00:04.4
46,-0.00226607,-0.00393545,0.00153216,-0.00348571,-0.00504926,-0.00673313,-0.00851038,-0.00383295,-0.00225558,-0.00239375,-0.01242223,-0.01147819,-0.00748914,-0.00203031,-0.00685295,-0.00456316,-0.00216374,0.00060820,-0.00319122,-0.00545793,-0.01378693,0.00267630,-0.00656035,-0.00259170,-0.00280829,-0.00268425,-0.00032846,0.00968087,0.00207709,-0.00226435,0.00315989,-0.00454734,-0.00099698,-0.00821022,-0.00003818,0.01468376,0.00546760,0.00431301,0.00836421,-0.00502632,0.00195908,-0.02290852,0.00526399,0.01415846,-0.00017525,0.01263419,0.01848779,0.01728691,-0.00290343,-0.01664646,0.00088705,-0.03296576,0, 00:00:04.5
47,-0.00236976,-0.00367422,0.00133063,-0.00421142,-0.00515447,-0.00682599,-0.00900962,-0.00427781,-0.00130839,-0.00120458,-0.01191541,-0.00979281,-0.00685102,-0.00220466,-0.00657797,-0.00475196,-0.00286138,-0.00039580,-0.00297789,-0.00298303,-0.01400598,0.00421155,-0.00446060,-0.00220475,-0.00303075,-0.00282649,-0.00049233,0.00805228,0.00261450,-0.00120040,0.00060660,-0.00296135,0.00029094,-0.00719074,0.00176134,0.01491681,0.00684135,0.00455856,0.00780815,-0.00442936,0.00263819,-0.02413529,0.00614185,0.01134812,0.00147838,0.01378950,0.02061650,0.02217329,-0.00134262,-0.01739932,-0.00031214,-0.03061128,0, 00:00:04.6
48,-0.00222404,-0.00352412,0.00106028,-0.00474758,-0.00523373,-0.00662655,-0.00891229,-0.00414660,-0.00020107,0.00013689,-0.01114612,-0.00811849,-0.00608054,-0.00219650,-0.00751058,-0.00517298,-0.00319591,-0.00112880,-0.00252942,-0.00057554,-0.01368516,0.00591430,-0.00281905,-0.00159673,-0.00311000,-0.00294074,-0.00078690,0.00593892,0.00296699,-0.00008744,-0.00211495,-0.00122960,0.00115119,-0.00615682,0.00340441,0.01491544,0.00807442,0.00424896,0.00682957,-0.00338675,0.00316866,-0.02550297,0.00769936,0.00883933,0.00327277,0.01463454,0.02219440,0.02724522,0.00007947,-0.01746093,-0.00115523,-0.02763566,0, 00:00:04.7
49,-0.00088625,-0.00231773,0.00215905,-0.00315293,-0.00379520,-0.00503082,-0.00631753,-0.00184480,0.00153104,0.00258769,-0.00932125,-0.00509394,-0.00470622,-0.00046149,-0.00583597,-0.00371658,-0.00237542,0.00052300,-0.00077738,0.00211233,-0.01075467,0.00863581,-0.00034250,-0.00001314,-0.00118088,-0.00109166,0.00004225,0.00512691,0.00437489,0.00205482,-0.00396868,0.00134253,0.00251200,-0.00454883,0.00620180,0.01709274,0.00955641,0.00462538,0.00673982,0.00074766,0.00455448,-0.02479868,0.01034185,0.00725434,0.00589357,0.01697258,0.02468760,0.03301217,0.00263706,-0.01350138,0.00193778,-0.02251701,0, 00:00:04.8
50,0.00106485,-0.00076703,0.00402052,-0.00097188,-0.00108038,-0.00272208,-0.00307888,0.00103352,0.00358099,0.00566413,-0.00709072,-0.00139035,-0.00287231,0.00186217,-0.00335261,-0.00097860,-0.00064395,0.00312918,0.00139768,0.00525534,-0.00703235,0.01223546,0.00270170,0.00202243,0.00183337,0.00141241,0.00220805,0.00591873,0.00650215,0.00481665,-0.00455189,0.00424555,0.00483500,-0.00248941,0.00979836,0.02063320,0.01224254,0.00631049,0.00772148,0.00561755,0.00656470,-0.02268874,0.01373605,0.00630068,0.00889615,0.02036192,0.02810741,0.03889402,0.00636265,-0.00813102,0.00626763,-0.01684678,0, 00:00:04.9
51,0.00288920,0.00090404,0.00591149,0.00073256,0.00147623,-0.00062173,-0.00039550,0.00346766,0.00572833,0.00874477,-0.00508958,0.00220923,-0.00113346,0.00408308,-0.00062043,0.00156198,0.00134869,0.00548362,0.00328945,0.00842407,-0.00322198,0.01576745,0.00614872,0.00400182,0.00475777,0.00389800,0.00432153,0.00724110,0.00877590,0.00742169,-0.00457370,0.00756150,0.00751694,-0.00040554,0.01348683,0.02402489,0.01552682,0.00856834,0.00923798,0.01003105,0.00889516,-0.02002739,0.01717639,0.00575492,0.01186809,0.02396453,0.03176435,0.04430849,0.01043194,-0.00328442,0.01006824,-0.01168309,0, 00:00:05.0
52,0.00378383,0.00186939,0.00663145,0.00173053,0.00265687,0.00051816,0.00036599,0.00409646,0.00754711,0.01069892,-0.00377338,0.00483409,0.00028102,0.00508680,0.00033098,0.00315113,0.00244442,0.00596912,0.00419966,0.01137178,-0.00174316,0.01842925,0.00930431,0.00544787,0.00611641,0.00571671,0.00588073,0.00752363,0.01021621,0.00919141,-0.00500734,0.01010099,0.00973123,0.00144307,0.01633261,0.02558033,0.01794839,0.01035635,0.01006503,0.01176352,0.01079317,-0.01839289,0.01977849,0.00560644,0.01410106,0.02651023,0.03473259,0.04931449,0.01386627,-0.00167641,0.01040221,-0.00787441,0, 00:00:05.1
53,0.00403899,0.00210830,0.00673104,0.00158164,0.00233012,0.00089533,0.00045768,0.00409072,0.00892278,0.01215547,-0.00283838,0.00666310,0.00127275,0.00534940,0.00004698,0.00352789,0.00262156,0.00565002,0.00456635,0.01395294,-0.00119865,0.02026838,0.01149009,0.00638779,0.00638010,0.00645752,0.00626466,0.00638696,0.01096924,0.01026356,-0.00560387,0.01205909,0.01129050,0.00285827,0.01844508,0.02574586,0.01962659,0.01108522,0.00989697,0.01258609,0.01233464,-0.01679839,0.02146643,0.00562722,0.01600714,0.02784123,0.03669053,0.05379595,0.01627071,-0.00152451,0.01014334,-0.00469774,0, 00:00:05.2
54,0.00402896,0.00216880,0.00660030,0.00168187,0.00223636,0.00097563,0.00038335,0.00392102,0.00983721,0.01327650,-0.00214958,0.00815998,0.00205277,0.00543135,0.00049690,0.00341128,0.00230915,0.00500479,0.00476991,0.01594418,-0.00043756,0.02193375,0.01314305,0.00703896,0.00640076,0.00695429,0.00620760,0.00479225,0.01143104,0.01098908,-0.00583247,0.01361007,0.01266248,0.00428773,0.02052058,0.02559909,0.02125087,0.01136748,0.00942325,0.01280172,0.01363618,-0.01516536,0.02325910,0.00594224,0.01748568,0.02885040,0.03811708,0.05777274,0.01823677,-0.00187458,0.00981795,-0.00185618,0, 00:00:05.3
55,0.00420535,0.00249491,0.00701917,0.00192907,0.00264592,0.00121396,0.00100846,0.00454440,0.01068654,0.01488602,-0.00139421,0.00995002,0.00296855,0.00608213,0.00118647,0.00387321,0.00210608,0.00519556,0.00525977,0.01751910,0.00144448,0.02398037,0.01507541,0.00781568,0.00685356,0.00786554,0.00628441,0.00353009,0.01222507,0.01219731,-0.00538487,0.01545521,0.01441781,0.00580828,0.02277610,0.02617399,0.02315328,0.01167678,0.00929525,0.01443985,0.01537716,-0.01231027,0.02560029,0.00684151,0.01861517,0.03026723,0.03949089,0.06162797,0.02007620,-0.00074837,0.01181500,0.00185404,0, 00:00:05.4
56,0.00552377,0.00401013,0.00877567,0.00357525,0.00387465,0.00251469,0.00327084,0.00667381,0.01199378,0.01744098,0.00009975,0.01299113,0.00443290,0.00806133,0.00224982,0.00583588,0.00311243,0.00732261,0.00661219,0.01920326,0.00546156,0.02649108,0.01799385,0.00928039,0.00904583,0.01027334,0.00764006,0.00405067,0.01421274,0.01405921,-0.00373975,0.01801752,0.01726882,0.00787204,0.02602997,0.02902596,0.02630653,0.01315832,0.01034988,0.01803621,0.01782796,-0.00776566,0.02913101,0.00863130,0.02029803,0.03332416,0.04194864,0.06547420,0.02292634,0.00318950,0.01649666,0.00686015,0, 00:00:05.5
57,0.00716809,0.00548749,0.01051878,0.00533764,0.00509729,0.00394658,0.00545182,0.00872628,0.01353591,0.01991094,0.00168810,0.01610453,0.00596041,0.01012166,0.00390335,0.00812976,0.00471668,0.00944587,0.00806575,0.02112156,0.00952635,0.02966673,0.02110070,0.01101503,0.01138925,0.01222592,0.00953276,0.00538006,0.01645673,0.01628561,-0.00177284,0.02059568,0.02037409,0.01009754,0.02938994,0.03212590,0.02983755,0.01524471,0.01197129,0.02141566,0.02032734,-0.00339820,0.03276803,0.01069909,0.02227646,0.03667669,0.04470650,0.06862389,0.02637581,0.00718071,0.02077527,0.01159841,0, 00:00:05.6
58,0.00821856,0.00663390,0.01168263,0.00699067,0.00611518,0.00513303,0.00660706,0.00983215,0.01488097,0.02192244,0.00298223,0.01863638,0.00743824,0.01154966,0.00546265,0.00955911,0.00620966,0.01061971,0.00916046,0.02295803,0.01236977,0.03280870,0.02408192,0.01252535,0.01308623,0.01418478,0.01082524,0.00629595,0.01830408,0.01813964,-0.00015158,0.02309688,0.02289335,0.01211915,0.03251502,0.03440462,0.03343753,0.01721441,0.01334740,0.02333048,0.02233849,-0.00002446,0.03606625,0.01235216,0.02411813,0.03959029,0.04710671,0.07109365,0.02957818,0.00941715,0.02297269,0.01575507,0, 00:00:05.7
59,0.00790742,0.00648937,0.01127640,0.00668808,0.00539305,0.00512125,0.00558854,0.00895379,0.01543785,0.02262427,0.00351155,0.01971016,0.00830073,0.01125994,0.00586551,0.00934565,0.00591696,0.00949726,0.00889788,0.02424637,0.01227199,0.03466537,0.02586501,0.01299419,0.01267616,0.01459957,0.01069494,0.00514295,0.01875057,0.01863432,0.00031447,0.02441696,0.02439433,0.01344755,0.03431023,0.03400525,0.03497683,0.01773624,0.01319723,0.02233944,0.02320376,0.00212791,0.03812665,0.01323007,0.02506936,0.04064576,0.04804668,0.07297362,0.03130233,0.00789792,0.02158282,0.01824422,0, 00:00:05.8
60,0.00722585,0.00584440,0.01031328,0.00588794,0.00472764,0.00436121,0.00429299,0.00758539,0.01548920,0.02293716,0.00348588,0.01989414,0.00871113,0.01038692,0.00598400,0.00778091,0.00462973,0.00760273,0.00815205,0.02485687,0.01175441,0.03580192,0.02698252,0.01289876,0.01129646,0.01390077,0.00979550,0.00224721,0.01841971,0.01864979,0.00017094,0.02509661,0.02507908,0.01419619,0.03522009,0.03235269,0.03523367,0.01689540,0.01195669,0.02059198,0.02337440,0.00401895,0.03948585,0.01367223,0.02561440,0.04054096,0.04777451,0.07400228,0.03179929,0.00523336,0.01952192,0.01993286,0, 00:00:05.9
61,0.00658896,0.00509867,0.00924425,0.00497715,0.00340742,0.00339907,0.00301229,0.00629392,0.01523733,0.02302613,0.00348664,0.02001046,0.00903238,0.00933047,0.00419036,0.00620119,0.00296046,0.00554693,0.00735588,0.02498374,0.01069198,0.03669018,0.02806528,0.01273185,0.00972301,0.01295761,0.00868986,-0.00116373,0.01763066,0.01833881,0.00013284,0.02515896,0.02523216,0.01476857,0.03574933,0.03023394,0.03470535,0.01540218,0.01009403,0.01877421,0.02303530,0.00607428,0.04046142,0.01411287,0.02596358,0.03975641,0.04670416,0.07466149,0.03169420,0.00244720,0.01703975,0.02166343,0, 00:00:06.0
62,0.00680672,0.00513889,0.00920193,0.00544626,0.00310849,0.00351530,0.00374086,0.00678232,0.01529328,0.02364443,0.00426610,0.02103393,0.00967920,0.00955440,0.00442314,0.00572083,0.00189233,0.00536267,0.00756156,0.02528665,0.01197296,0.03829386,0.02975635,0.01327269,0.00949376,0.01292566,0.00778291,-0.00380719,0.01748816,0.01882555,0.00133464,0.02623978,0.02574009,0.01565848,0.03680460,0.02956715,0.03474379,0.01404011,0.00868300,0.01947818,0.02346476,0.00970606,0.04258210,0.01518995,0.02674040,0.03981823,0.04601365,0.07545903,0.03187667,0.00278057,0.01838767,0.02507738,0, 00:00:06.1
63,0.00767464,0.00592965,0.00987959,0.00684551,0.00391627,0.00458512,0.00567108,0.00825405,0.01567491,0.02487865,0.00562679,0.02292808,0.01070301,0.01065783,0.00640584,0.00682028,0.00215776,0.00636797,0.00839750,0.02571744,0.01497284,0.04057109,0.03164496,0.01439528,0.01071750,0.01417676,0.00826261,-0.00493881,0.01798690,0.01960946,0.00298631,0.02818499,0.02703543,0.01701081,0.03870780,0.03062602,0.03574314,0.01378006,0.00825435,0.02121845,0.02433720,0.01347660,0.04491278,0.01656811,0.02797896,0.04094134,0.04628315,0.07695355,0.03312012,0.00490713,0.02093768,0.02917629,0, 00:00:06.2
64,0.00869521,0.00684774,0.01064220,0.00768258,0.00498079,0.00582726,0.00761903,0.00982666,0.01617230,0.02602977,0.00704117,0.02489571,0.01187878,0.01189206,0.00729309,0.00839146,0.00299401,0.00764533,0.00926313,0.02653903,0.01800979,0.04289215,0.03379111,0.01560082,0.01210707,0.01557603,0.00898494,-0.00546020,0.01860916,0.02088425,0.00447851,0.03019072,0.02861740,0.01844143,0.04081636,0.03188545,0.03695269,0.01403642,0.00827174,0.02295089,0.02537750,0.01696857,0.04740599,0.01791499,0.02931567,0.04225541,0.04687591,0.07886163,0.03494851,0.00729181,0.02347423,0.03328792,0, 00:00:06.3
65,0.00929364,0.00730642,0.01079635,0.00796329,0.00521303,0.00672833,0.00843296,0.01024321,0.01660536,0.02677468,0.00816345,0.02639644,0.01279852,0.01241823,0.00729909,0.00952417,0.00371014,0.00775855,0.00969841,0.02727258,0.01967103,0.04459036,0.03566403,0.01640528,0.01285690,0.01651271,0.00959719,-0.00632922,0.01867025,0.02148634,0.00509018,0.03189098,0.02968472,0.01944024,0.04248187,0.03227717,0.03773884,0.01423484,0.00794638,0.02287365,0.02600939,0.01909183,0.04919553,0.01889460,0.03037451,0.04293641,0.04718382,0.08056625,0.03677382,0.00763116,0.02349470,0.03646549,0, 00:00:06.4
66,0.00844573,0.00658785,0.00961269,0.00749752,0.00411385,0.00635378,0.00754661,0.00909267,0.01646253,0.02657360,0.00841807,0.02654594,0.01315725,0.01153627,0.00658606,0.00873618,0.00264324,0.00591293,0.00907076,0.02756217,0.01858263,0.04521901,0.03654044,0.01640449,0.01180630,0.01607110,0.00876794,-0.00911786,0.01753332,0.02114957,0.00461125,0.03235080,0.02989689,0.01987073,0.04274260,0.03017956,0.03717379,0.01317732,0.00619948,0.02073611,0.02575615,0.01941135,0.04985316,0.01884697,0.03085097,0.04189828,0.04609476,0.08154099,0.03724590,0.00520298,0.02114978,0.03814497,0, 00:00:06.5
67,0.00764816,0.00562393,0.00823824,0.00669785,0.00289341,0.00569778,0.00650892,0.00783700,0.01596279,0.02575915,0.00855050,0.02640047,0.01321840,0.01034316,0.00478096,0.00719991,0.00115807,0.00377293,0.00815407,0.02751353,0.01744525,0.04561941,0.03724004,0.01607936,0.01026102,0.01478186,0.00745647,-0.01276472,0.01598087,0.02073708,0.00381927,0.03295465,0.02975404,0.01991992,0.04256057,0.02753273,0.03570492,0.01133924,0.00380736,0.01871102,0.02529538,0.01929408,0.05051349,0.01833487,0.03117154,0.04009394,0.04439034,0.08213808,0.03706491,0.00272529,0.01904306,0.03954877,0, 00:00:06.6
68,0.00716310,0.00531791,0.00779231,0.00673433,0.00233151,0.00530376,0.00634161,0.00751589,0.01535740,0.02544664,0.00864212,0.02684235,0.01331164,0.00997132,0.00399389,0.00611986,-0.00004750,0.00277777,0.00773628,0.02724632,0.01845277,0.04615430,0.03756969,0.01571248,0.00933414,0.01401274,0.00638842,-0.01576465,0.01499439,0.02094746,0.00365865,0.03338611,0.03025959,0.01995595,0.04260897,0.02589868,0.03545541,0.00979862,0.00196760,0.01844885,0.02514142,0.02029057,0.05150743,0.01780659,0.03156131,0.03867695,0.04287637,0.08196642,0.03686030,0.00223049,0.01960286,0.04162969,0, 00:00:06.7
69,0.00787720,0.00629652,0.00875499,0.00763819,0.00309269,0.00600629,0.00785824,0.00880909,0.01525011,0.02600910,0.00942322,0.02859903,0.01384996,0.01110521,0.00543945,0.00684581,0.00024207,0.00381283,0.00830001,0.02737551,0.02201477,0.04791374,0.03932484,0.01598867,0.01038566,0.01459943,0.00640646,-0.01662198,0.01537749,0.02211103,0.00479228,0.03459926,0.03225876,0.02054076,0.04374363,0.02689080,0.03558378,0.00964666,0.00174274,0.02058373,0.02583158,0.02362935,0.05427368,0.01789906,0.03250409,0.03892087,0.04267662,0.08138189,0.03763556,0.00511217,0.02346315,0.04528276,0, 00:00:06.8
70,0.00887294,0.00765117,0.00998011,0.00906901,0.00412590,0.00720685,0.00981011,0.01030830,0.01552602,0.02700201,0.01050000,0.03092055,0.01465831,0.01261734,0.00794706,0.00784040,0.00148691,0.00525607,0.00912650,0.02762448,0.02539400,0.05006349,0.04160675,0.01670550,0.01197260,0.01621453,0.00706825,-0.01619897,0.01631914,0.02355732,0.00628545,0.03604824,0.03475735,0.02150964,0.04536358,0.02857228,0.03597081,0.01035970,0.00228942,0.02296903,0.02693485,0.02742199,0.05721968,0.01816251,0.03381265,0.03977196,0.04318362,0.08135871,0.03918635,0.00852134,0.02753556,0.04906679,0, 00:00:06.9
71,0.00985501,0.00904108,0.01134479,0.01072317,0.00553485,0.00854750,0.01179302,0.01183202,0.01601830,0.02822733,0.01183964,0.03341279,0.01568420,0.01424811,0.01017546,0.00921013,0.00271874,0.00682042,0.01014188,0.02841344,0.02883410,0.05240723,0.04372372,0.01772952,0.01372771,0.01780055,0.00818475,-0.01535808,0.01752267,0.02523250,0.00780217,0.03793219,0.03740426,0.02251501,0.04722129,0.03038562,0.03694926,0.01135023,0.00321601,0.02527593,0.02834547,0.03118658,0.06024086,0.01851353,0.03532454,0.04086415,0.04398093,0.08098035,0.04118671,0.01190905,0.03127520,0.05320211,0, 00:00:07.0
72,0.01006058,0.00949438,0.01159935,0.01062819,0.00607863,0.00917856,0.01201585,0.01174161,0.01632970,0.02839714,0.01275766,0.03505106,0.01642664,0.01462471,0.01203641,0.00994982,0.00327050,0.00661558,0.01026664,0.02895031,0.03022867,0.05416280,0.04577052,0.01814823,0.01417723,0.01842694,0.00862439,-0.01556819,0.01784572,0.02602900,0.00851364,0.03942049,0.03932329,0.02318514,0.04837222,0.03041929,0.03721116,0.01180580,0.00339154,0.02495791,0.02892392,0.03325639,0.06265900,0.01839824,0.03623129,0.04078276,0.04400429,0.07942831,0.04274909,0.01229040,0.03146652,0.05592588,0, 00:00:07.1
73,0.00945037,0.00933666,0.01086904,0.01010098,0.00514737,0.00871987,0.01106041,0.01058698,0.01613313,0.02779982,0.01305914,0.03560110,0.01674159,0.01396845,0.01109685,0.00888255,0.00228975,0.00496126,0.00968266,0.02923973,0.02997395,0.05526534,0.04674274,0.01782407,0.01298100,0.01788449,0.00757700,-0.01786248,0.01716385,0.02591632,0.00824777,0.03958654,0.04036901,0.02327881,0.04841847,0.02840764,0.03740301,0.01076437,0.00201491,0.02352858,0.02874981,0.03407542,0.06367332,0.01772447,0.03644540,0.03928642,0.04287738,0.07809866,0.04298281,0.01050697,0.03006275,0.05764972,0, 00:00:07.2
74,0.00891512,0.00920926,0.01020706,0.00956137,0.00392087,0.00825451,0.01059402,0.00985913,0.01585624,0.02719209,0.01323910,0.03605743,0.01695308,0.01341361,0.01154217,0.00755535,0.00117894,0.00360293,0.00923721,0.02926881,0.02993383,0.05606123,0.04789007,0.01739893,0.01182033,0.01699374,0.00640105,-0.02066572,0.01636239,0.02601617,0.00778356,0.03994783,0.04105398,0.02335636,0.04829840,0.02641110,0.03754351,0.00936008,0.00033321,0.02311715,0.02835653,0.03492516,0.06459422,0.01709155,0.03655266,0.03764569,0.04148302,0.07727320,0.04275017,0.00967122,0.02991086,0.05969593,0, 00:00:07.3
75,0.00955337,0.00994098,0.01088963,0.01077565,0.00486135,0.00901838,0.01233007,0.01109361,0.01611073,0.02780502,0.01433090,0.03771386,0.01763457,0.01442287,0.01365039,0.00813129,0.00129838,0.00439855,0.01009274,0.02977188,0.03223444,0.05810256,0.04952560,0.01784620,0.01243486,0.01731886,0.00602268,-0.02203118,0.01660090,0.02746813,0.00851294,0.04135398,0.04251761,0.02391248,0.04921387,0.02655612,0.03751754,0.00875180,-0.00030264,0.02561511,0.02876055,0.03738263,0.06670806,0.01725603,0.03751144,0.03736288,0.04106602,0.07696523,0.04330813,0.01257235,0.03353708,0.06323351,0, 00:00:07.4
76,0.01110717,0.01140968,0.01248454,0.01299467,0.00688575,0.01094497,0.01532990,0.01345527,0.01710678,0.02919285,0.01641694,0.04071357,0.01896355,0.01647974,0.01526177,0.01040224,0.00310182,0.00665634,0.01191583,0.03109369,0.03646420,0.06141543,0.05184582,0.01912313,0.01466179,0.01943218,0.00709531,-0.02148032,0.01782747,0.02963381,0.01018371,0.04351998,0.04488601,0.02508258,0.05109731,0.02846801,0.03908540,0.00966322,0.00033944,0.02947759,0.02977695,0.04110654,0.06987296,0.01792940,0.03929739,0.03854662,0.04196749,0.07780527,0.04556122,0.01771417,0.03863911,0.06779307,0, 00:00:07.5
77,0.01286988,0.01316615,0.01440295,0.01573973,0.00915346,0.01326400,0.01865704,0.01618545,0.01852394,0.03116860,0.01895470,0.04396294,0.02064526,0.01884557,0.01624330,0.01320336,0.00542320,0.00937430,0.01409977,0.03304239,0.04092115,0.06516226,0.05519065,0.02094144,0.01731072,0.02171839,0.00838112,-0.02020413,0.01937974,0.03252294,0.01223162,0.04636528,0.04733184,0.02643701,0.05339999,0.03072778,0.04134003,0.01129873,0.00153453,0.03367205,0.03120384,0.04537028,0.07333349,0.01880763,0.04152869,0.04021430,0.04358748,0.07977282,0.04888592,0.02370888,0.04407866,0.07273256,0, 00:00:07.6
78,0.01479986,0.01519538,0.01652282,0.01846500,0.01144180,0.01568722,0.02212631,0.01895773,0.02025005,0.03359304,0.02185200,0.04748164,0.02249233,0.02147709,0.01878929,0.01595409,0.00779816,0.01230401,0.01648164,0.03527999,0.04536994,0.06864119,0.05814227,0.02281625,0.02028557,0.02451808,0.01024239,-0.01848775,0.02124550,0.03532888,0.01443618,0.04943879,0.05002483,0.02815010,0.05624785,0.03330062,0.04408002,0.01351032,0.00328313,0.03779214,0.03273276,0.04979566,0.07740679,0.01977679,0.04384898,0.04230721,0.04579842,0.08242635,0.05297447,0.02964159,0.04922322,0.07769106,0, 00:00:07.7
79,0.01544155,0.01625684,0.01736276,0.01996982,0.01266388,0.01726950,0.02351989,0.01972110,0.02177071,0.03499233,0.02399884,0.04969453,0.02390924,0.02257738,0.01977168,0.01768138,0.00908327,0.01313200,0.01782036,0.03761024,0.04754775,0.07138810,0.06062615,0.02405483,0.02168644,0.02651794,0.01159629,-0.01786996,0.02215726,0.03734802,0.01556163,0.05176409,0.05205406,0.02943110,0.05829268,0.03389661,0.04666105,0.01535818,0.00427831,0.03900137,0.03373213,0.05283000,0.08009081,0.02014078,0.04546161,0.04333418,0.04731917,0.08536148,0.05657504,0.03214944,0.05057048,0.08114757,0, 00:00:07.8
80,0.01562265,0.01662506,0.01760650,0.01986615,0.01268811,0.01794063,0.02408854,0.01976500,0.02303164,0.03548077,0.02536283,0.05116985,0.02495448,0.02286138,0.01864237,0.01815604,0.00944438,0.01289558,0.01855401,0.03968738,0.04889335,0.07332262,0.06285149,0.02479086,0.02174005,0.02718906,0.01168852,-0.01866421,0.02246488,0.03901721,0.01602357,0.05352160,0.05354355,0.03029919,0.05953928,0.03298378,0.04742577,0.01627694,0.00440334,0.03948984,0.03459254,0.05540660,0.08179186,0.01996619,0.04652717,0.04336580,0.04808362,0.08868899,0.05929085,0.03335812,0.05144777,0.08415194,0, 00:00:07.9
81,0.01608533,0.01743460,0.01848839,0.02108064,0.01303903,0.01878480,0.02540390,0.02067300,0.02444706,0.03647169,0.02680617,0.05302031,0.02615973,0.02380116,0.01855017,0.01893273,0.00969275,0.01364916,0.01986500,0.04183205,0.05172129,0.07541779,0.06474856,0.02558613,0.02236277,0.02834967,0.01175219,-0.01930585,0.02319256,0.04106530,0.01664451,0.05555503,0.05559383,0.03124285,0.06115076,0.03278314,0.04859744,0.01729170,0.00480797,0.04154446,0.03573820,0.05844092,0.08413893,0.01988481,0.04774249,0.04378814,0.04902614,0.09215741,0.06193355,0.03616495,0.05466001,0.08804903,0, 00:00:08.0
82,0.01766456,0.01941128,0.02066320,0.02301483,0.01510636,0.02061962,0.02836732,0.02295231,0.02646119,0.03864776,0.02911488,0.05614868,0.02789197,0.02621906,0.02104346,0.02096847,0.01119867,0.01627958,0.02217907,0.04455209,0.05626290,0.07866949,0.06756408,0.02713494,0.02462701,0.03069238,0.01298239,-0.01811942,0.02515348,0.04399250,0.01860606,0.05806433,0.05863517,0.03259184,0.06382822,0.03473070,0.05083194,0.01952636,0.00654684,0.04564986,0.03748289,0.06323179,0.08782382,0.02027010,0.04985612,0.04554908,0.05107655,0.09568106,0.06583720,0.04175461,0.06045931,0.09317005,0, 00:00:08.1
83,0.01949755,0.02154453,0.02309312,0.02567260,0.01723968,0.02297602,0.03148259,0.02545511,0.02888967,0.04161527,0.03184067,0.05970974,0.02988362,0.02880927,0.02418268,0.02370566,0.01344830,0.01923868,0.02479046,0.04740366,0.06100186,0.08241954,0.07126739,0.02900063,0.02743553,0.03372704,0.01509808,-0.01588552,0.02773597,0.04719307,0.02098722,0.06094557,0.06192823,0.03404989,0.06696238,0.03723554,0.05497426,0.02272774,0.00905649,0.05001332,0.03937016,0.06824203,0.09170211,0.02072682,0.05235282,0.04788443,0.05375021,0.09914909,0.07060423,0.04803952,0.06620805,0.09801981,0, 00:00:08.2
84,0.02145979,0.02376043,0.02565164,0.02843172,0.01943795,0.02543872,0.03464455,0.02806267,0.03146725,0.04463034,0.03468490,0.06348704,0.03205820,0.03165858,0.02780568,0.02644606,0.01575553,0.02243241,0.02748140,0.05037401,0.06666942,0.08627891,0.07475838,0.03104350,0.03031952,0.03739879,0.01714950,-0.01338873,0.03065299,0.05098292,0.02367945,0.06414818,0.06537092,0.03570645,0.07016995,0.03994039,0.05865507,0.02611212,0.01198346,0.05461001,0.04145228,0.07389207,0.09565622,0.02147268,0.05478490,0.05050747,0.05667010,0.10246103,0.07573316,0.05452600,0.07210293,0.10330551,0, 00:00:08.3
85,0.02279464,0.02567333,0.02754623,0.03081071,0.02145449,0.02745043,0.03663551,0.02952226,0.03389406,0.04734389,0.03738802,0.06666355,0.03404497,0.03377251,0.03076275,0.02882714,0.01782270,0.02442558,0.02961084,0.05317028,0.07076535,0.08995342,0.07790995,0.03287800,0.03246582,0.04019619,0.01884135,-0.01130673,0.03312533,0.05405785,0.02598040,0.06702369,0.06835164,0.03725480,0.07300357,0.04172080,0.06184803,0.02923933,0.01462529,0.05728324,0.04296786,0.07903814,0.09910736,0.02195401,0.05677683,0.05271666,0.05918843,0.10469753,0.08077842,0.05872596,0.07519868,0.10748805,0, 00:00:08.4
86,0.02285087,0.02628420,0.02801024,0.03170855,0.02117292,0.02797982,0.03668597,0.02901863,0.03566490,0.04873166,0.03903826,0.06824102,0.03535536,0.03417822,0.03071530,0.02899738,0.01828077,0.02414807,0.03038369,0.05535494,0.07227536,0.09235457,0.08024999,0.03355973,0.03236341,0.04093212,0.01930338,-0.01134733,0.03433196,0.05563274,0.02718527,0.06898152,0.07029764,0.03826370,0.07451992,0.04075961,0.06491532,0.03095433,0.01590080,0.05702017,0.04348465,0.08282743,0.10080847,0.02156753,0.05749579,0.05313934,0.05993774,0.10516427,0.08434891,0.05921746,0.07466915,0.11035667,0, 00:00:08.5
87,0.02244124,0.02648279,0.02801123,0.03207961,0.02050063,0.02786965,0.03601027,0.02818833,0.03691277,0.04935607,0.04011878,0.06911160,0.03625677,0.03415738,0.03047519,0.02851424,0.01774772,0.02329621,0.03071613,0.05684657,0.07318194,0.09387549,0.08178067,0.03385232,0.03143523,0.04088841,0.01901553,-0.01265583,0.03499680,0.05688363,0.02793264,0.07010631,0.07185514,0.03883204,0.07536068,0.03893165,0.06729981,0.03151758,0.01626940,0.05621005,0.04342975,0.08634824,0.10237701,0.02092800,0.05775701,0.05271066,0.05972077,0.10478707,0.08681106,0.05874960,0.07374602,0.11281215,0, 00:00:08.6
88,0.02252798,0.02687805,0.02860246,0.03344593,0.02047456,0.02794024,0.03618909,0.02823658,0.03817489,0.05074621,0.04141317,0.07032033,0.03714607,0.03478903,0.03031133,0.02820995,0.01717534,0.02317743,0.03122438,0.05779262,0.07531166,0.09575201,0.08367120,0.03419841,0.03099244,0.04103529,0.01837314,-0.01378061,0.03599758,0.05840757,0.02925281,0.07124723,0.07350741,0.03935082,0.07641614,0.03768505,0.06870658,0.03167358,0.01661661,0.05682543,0.04357640,0.09108085,0.10454854,0.02037531,0.05822145,0.05243878,0.05932336,0.10373234,0.08899043,0.05985383,0.07497845,0.11595852,0, 00:00:08.7
89,0.02366587,0.02838727,0.03043705,0.03565634,0.02162341,0.02910325,0.03815307,0.02976870,0.03987178,0.05290784,0.04344546,0.07258589,0.03856616,0.03687492,0.03229974,0.02995222,0.01784137,0.02495233,0.03226424,0.05877354,0.07984973,0.09827251,0.08615994,0.03525192,0.03218099,0.04278816,0.01882222,-0.01320442,0.03805704,0.06050677,0.03166184,0.07342178,0.07551038,0.04022715,0.07826094,0.03843012,0.07030313,0.03263000,0.01785511,0.05925238,0.04418528,0.09700615,0.10692921,0.02008652,0.05931585,0.05343946,0.05977886,0.10313863,0.09209862,0.06354383,0.07844511,0.12002590,0, 00:00:08.8
90,0.02491050,0.02997733,0.03242892,0.03766447,0.02376282,0.03062391,0.04016120,0.03135261,0.04164520,0.05473795,0.04552279,0.07494891,0.04006656,0.03902645,0.03421279,0.03198511,0.01904825,0.02701899,0.03340044,0.05969929,0.08473375,0.10095792,0.08882795,0.03649513,0.03369082,0.04473303,0.02006262,-0.01180553,0.04031414,0.06241270,0.03430502,0.07534393,0.07752479,0.04123620,0.08031391,0.03952122,0.07329377,0.03412460,0.01954269,0.06146303,0.04469446,0.10362995,0.10940487,0.01976183,0.06048952,0.05462549,0.06050521,0.10267820,0.09582000,0.06731771,0.08141872,0.12418601,0, 00:00:08.9
91,0.02639965,0.03166082,0.03438788,0.03991061,0.02529377,0.03226307,0.04229840,0.03301203,0.04359035,0.05725119,0.04760889,0.07738215,0.04155584,0.04128108,0.03608866,0.03388555,0.02005068,0.02926968,0.03468001,0.06052175,0.08869684,0.10395022,0.09105133,0.03780763,0.03521990,0.04676424,0.02134236,-0.01020790,0.04261578,0.06464121,0.03719845,0.07783022,0.07953034,0.04226476,0.08239972,0.04067061,0.07594693,0.03578526,0.02147787,0.06369842,0.04498342,0.11040435,0.11172470,0.01950092,0.06177206,0.05589264,0.06129874,0.10171162,0.09970623,0.07114870,0.08402425,0.12822571,0, 00:00:09.0
92,0.02687566,0.03225200,0.03503809,0.04110736,0.02567400,0.03305758,0.04274966,0.03289003,0.04516910,0.05853210,0.04913086,0.07859147,0.04267487,0.04204586,0.03772649,0.03425868,0.02037168,0.02941765,0.03509388,0.06121432,0.09076928,0.10609631,0.09270399,0.03867354,0.03524534,0.04813500,0.02156053,-0.00986892,0.04362512,0.06568260,0.04015315,0.07923057,0.08043041,0.04259278,0.08353941,0.03984483,0.07810303,0.03669742,0.02244588,0.06284069,0.04520023,0.11689211,0.11213752,0.01952034,0.06270644,0.05584833,0.06103818,0.10012765,0.10285161,0.07135583,0.08329447,0.13016617,0, 00:00:09.1
93,0.02624783,0.03188937,0.03453111,0.04126265,0.02481034,0.03284020,0.04223782,0.03167937,0.04601397,0.05867510,0.05039357,0.07834105,0.04317107,0.04162303,0.03759440,0.03338730,0.01921972,0.02810868,0.03482142,0.06150875,0.09251696,0.10700858,0.09391674,0.03903038,0.03355826,0.04744422,0.02033599,-0.01198282,0.04306361,0.06547047,0.04356079,0.07981270,0.08051718,0.04217588,0.08358251,0.03674295,0.07847019,0.03574739,0.02158305,0.05983851,0.04606109,0.12270961,0.11183933,0.02130448,0.06326251,0.05393026,0.05928449,0.09982417,0.10448419,0.06902976,0.08190818,0.13076976,0, 00:00:09.2
94,0.02582890,0.03138999,0.03392800,0.04127342,0.02423606,0.03274487,0.04235093,0.03085700,0.04639224,0.05874228,0.05181132,0.07780057,0.04366307,0.04121067,0.03618094,0.03251126,0.01785062,0.02680418,0.03486874,0.06127336,0.09493428,0.10785891,0.09480549,0.03946351,0.03190591,0.04668472,0.01906966,-0.01491621,0.04189321,0.06519258,0.04726925,0.08036468,0.08042980,0.04167708,0.08344299,0.03348564,0.07865668,0.03410516,0.01997034,0.05680420,0.04699723,0.12843595,0.11208753,0.02414099,0.06391089,0.05158033,0.05718391,0.10282203,0.10580666,0.06685873,0.08128187,0.13130733,0, 00:00:09.3
95,0.02629688,0.03136406,0.03426353,0.04232133,0.02440544,0.03355311,0.04433666,0.03205679,0.04630338,0.05992082,0.05366859,0.07797740,0.04458876,0.04189092,0.03581847,0.03270839,0.01736520,0.02740133,0.03614803,0.06113057,0.09953944,0.10936680,0.09548157,0.04044567,0.03159342,0.04709323,0.01856438,-0.01719358,0.04100628,0.06554209,0.05167629,0.08173542,0.08069745,0.04155675,0.08389952,0.03125963,0.07818035,0.03264599,0.01857584,0.05610681,0.04870936,0.13549924,0.11322636,0.02798826,0.06526951,0.04981743,0.05595976,0.11294469,0.10789423,0.06798889,0.08419978,0.13276312,0, 00:00:09.4
96,0.02757690,0.03212478,0.03587889,0.04503784,0.02582951,0.03549803,0.04787256,0.03459666,0.04621086,0.06168042,0.05614354,0.07902586,0.04593693,0.04385986,0.03891898,0.03491592,0.01857900,0.02979176,0.03800696,0.06075819,0.10559674,0.11164439,0.09700926,0.04205493,0.03310762,0.04905118,0.01971375,-0.01726384,0.04117174,0.06716084,0.05655972,0.08367092,0.08091984,0.04159074,0.08513456,0.03101976,0.07931905,0.03281271,0.01833651,0.05697066,0.05014990,0.14219674,0.11496124,0.03110170,0.06769697,0.04909495,0.05704253,0.13257118,0.11203383,0.07196548,0.08891919,0.13498017,0, 00:00:09.5
97,0.02911403,0.03308665,0.03785582,0.04808440,0.02771614,0.03747401,0.05150010,0.03729862,0.04620880,0.06327789,0.05887898,0.08052057,0.04737735,0.04623769,0.04053317,0.03741113,0.02032748,0.03237578,0.03983458,0.05944432,0.11039385,0.11394051,0.09841623,0.04345062,0.03500145,0.05167916,0.02149566,-0.01627670,0.04186552,0.06886282,0.06013294,0.08513638,0.08042623,0.04144636,0.08640112,0.03134058,0.08080913,0.03423546,0.01882431,0.05807879,0.05005118,0.14693847,0.11628782,0.03218232,0.07047823,0.04853565,0.05912069,0.15466468,0.11751181,0.07628730,0.09277950,0.13749307,0, 00:00:09.6
98,0.03054503,0.03418776,0.04013126,0.05126971,0.02960358,0.03929245,0.05452907,0.03962923,0.04627633,0.06490523,0.06125894,0.08204921,0.04875238,0.04863367,0.04401339,0.04029449,0.02202949,0.03476088,0.04155580,0.05830811,0.11445247,0.11617550,0.10000239,0.04455281,0.03691608,0.05473678,0.02374038,-0.01462590,0.04293991,0.07068221,0.06275074,0.08668751,0.08060562,0.04130461,0.08768491,0.03216570,0.08307672,0.03679867,0.01998590,0.05917881,0.04997427,0.15085605,0.11673020,0.03214063,0.07287546,0.04823706,0.06149611,0.17392710,0.12337218,0.08029091,0.09589685,0.13960066,0, 00:00:09.7
99,0.03078105,0.03448750,0.04113887,0.05294518,0.03014712,0.03966448,0.05501451,0.03982759,0.04599332,0.06545118,0.06265756,0.08232906,0.04950546,0.04940857,0.04520065,0.04132797,0.02274842,0.03481114,0.04199295,0.05697425,0.11556719,0.11705168,0.10084313,0.04459115,0.03683285,0.05582041,0.02520460,-0.01423556,0.04311609,0.07157777,0.06351177,0.08717374,0.08013598,0.04038066,0.08771791,0.03079989,0.08540768,0.03909215,0.02030932,0.05743945,0.04901902,0.15289088,0.11637823,0.03003437,0.07480286,0.04620880,0.06291233,0.19203320,0.12820719,0.08041252,0.09461559,0.14006859,0, 00:00:09.8
100,0.03043462,0.03441129,0.04146468,0.05368265,0.02937774,0.03919514,0.05467574,0.03937405,0.04544802,0.06573418,0.06345242,0.08190987,0.04999093,0.04960666,0.04446636,0.04073864,0.02225933,0.03392388,0.04207141,0.05554205,0.11614177,0.11730567,0.10155027,0.04409967,0.03557266,0.05627926,0.02543347,-0.01539981,0.04271181,0.07179904,0.06363109,0.08696973,0.07902546,0.03905781,0.08690119,0.02793978,0.08680423,0.04039324,0.01960455,0.05503160,0.04759200,0.15476562,0.11489107,0.02755256,0.07598757,0.04297683,0.06330623,0.20910376,0.13190851,0.07908434,0.09229719,0.14016750,0, 00:00:09.9
101,0.03014443,0.03430252,0.04191090,0.05500042,0.02869004,0.03902274,0.05503704,0.03948533,0.04479228,0.06625836,0.06454286,0.08153838,0.05072540,0.05010951,0.04518020,0.04035540,0.02156328,0.03353754,0.04270852,0.05385821,0.11780308,0.11772746,0.10192125,0.04400766,0.03445817,0.05669647,0.02565167,-0.01685153,0.04228549,0.07228480,0.06526274,0.08677529,0.07775179,0.03795241,0.08618331,0.02525587,0.08748075,0.04130680,0.01864592,0.05345183,0.04645454,0.15821859,0.11352829,0.02665062,0.07681336,0.03970516,0.06339656,0.22643067,0.13535555,0.07877866,0.09204843,0.14046587,1, 00:00:10.0
102,0.03116984,0.03514146,0.04381623,0.05752442,0.02976880,0.04040283,0.05793988,0.04184918,0.04429055,0.06814591,0.06662875,0.08249249,0.05207257,0.05232557,0.04829155,0.04195293,0.02256663,0.03568233,0.04484062,0.05233830,0.12335192,0.11967722,0.10329331,0.04487472,0.03558721,0.05885711,0.02713771,-0.01624136,0.04301025,0.07383085,0.06956770,0.08789172,0.07749575,0.03748075,0.08670229,0.02511624,0.08883168,0.04347247,0.01883792,0.05476258,0.04642440,0.16397493,0.11421185,0.02835661,0.07826863,0.03809202,0.06462736,0.24696496,0.14029531,0.08254971,0.09671760,0.14202167,0, 00:00:10.1
103,0.03284842,0.03656502,0.04648209,0.06145063,0.03202301,0.04269518,0.06166376,0.04488628,0.04417614,0.07048914,0.06924965,0.08399756,0.05378104,0.05551020,0.05256905,0.04497833,0.02502668,0.03865483,0.04744969,0.05057225,0.12884358,0.12214642,0.10491497,0.04616865,0.03797587,0.06232956,0.03018594,-0.01357140,0.04468128,0.07600703,0.07285150,0.08945326,0.07765436,0.03720977,0.08802579,0.02645300,0.09183261,0.04754207,0.02036576,0.05698705,0.04617918,0.16815694,0.11527445,0.02872262,0.07996219,0.03758517,0.06703884,0.26973075,0.14705184,0.08804405,0.10105776,0.14436539,0, 00:00:10.2
104,0.03489714,0.03828520,0.04953119,0.06555378,0.03483878,0.04529379,0.06571481,0.04829111,0.04460878,0.07295209,0.07224721,0.08589719,0.05588512,0.05908255,0.05613236,0.04854931,0.02794110,0.04201345,0.05030579,0.04943711,0.13359682,0.12444589,0.10712700,0.04782651,0.04078404,0.06647775,0.03377797,-0.01041117,0.04681759,0.07865220,0.07499292,0.09125946,0.07801256,0.03711550,0.08952270,0.02796977,0.09531052,0.05250971,0.02223560,0.05999095,0.04540233,0.17219098,0.11505849,0.02766394,0.08194569,0.03736004,0.06984596,0.29212755,0.15439031,0.09470376,0.10503741,0.14699852,0, 00:00:10.3
105,0.03674671,0.03975277,0.05222261,0.06940874,0.03741056,0.04777326,0.06900906,0.05096195,0.04523768,0.07493547,0.07524276,0.08772928,0.05792480,0.06220864,0.05987800,0.05202277,0.03079587,0.04470189,0.05293449,0.04858281,0.13767779,0.12624346,0.10935885,0.04935721,0.04318273,0.07061668,0.03731648,-0.00742205,0.04883723,0.08093539,0.07645831,0.09281536,0.07796724,0.03692440,0.09071670,0.02884004,0.09886528,0.05778117,0.02404196,0.06160811,0.04439670,0.17568782,0.11395732,0.02556802,0.08393128,0.03691370,0.07267373,0.31488046,0.16207139,0.09979229,0.10657413,0.14897867,0, 00:00:10.4
106,0.03738013,0.04024510,0.05380828,0.07221851,0.03912865,0.04921283,0.07081823,0.05228972,0.04552728,0.07625088,0.07757174,0.08829147,0.05954678,0.06412211,0.06177599,0.05396684,0.03230402,0.04562300,0.05468543,0.04754937,0.14011987,0.12740912,0.11067036,0.05025620,0.04390561,0.07320725,0.04014201,-0.00614975,0.04973378,0.08255965,0.07692071,0.09381728,0.07688686,0.03614692,0.09094153,0.02747573,0.10180261,0.06208656,0.02474616,0.06116173,0.04295907,0.17783490,0.11180583,0.02252617,0.08547179,0.03488572,0.07441042,0.33807760,0.16904320,0.10196604,0.10554130,0.14992027,0, 00:00:10.5
107,0.03790405,0.04080924,0.05539525,0.07478715,0.04068869,0.05049787,0.07273704,0.05377347,0.04576224,0.07771833,0.07979359,0.08875611,0.06101238,0.06610856,0.06334784,0.05570990,0.03338744,0.04657621,0.05651421,0.04662864,0.14258303,0.12820289,0.11164439,0.05091318,0.04447207,0.07623150,0.04285433,-0.00560270,0.05051351,0.08372158,0.07713392,0.09483700,0.07547397,0.03518276,0.09100700,0.02575745,0.10432105,0.06589842,0.02495580,0.06137289,0.04176387,0.17992297,0.10959249,0.01913905,0.08709824,0.03246331,0.07601391,0.36346376,0.17554608,0.10451347,0.10521936,0.15123537,0, 00:00:10.6
108,0.03937110,0.04205140,0.05795287,0.07811799,0.04258280,0.05249912,0.07614428,0.05663272,0.04639687,0.08010577,0.08275548,0.09026361,0.06279748,0.06917156,0.06692615,0.05878240,0.03510677,0.04899454,0.05929468,0.04595625,0.14709450,0.12993279,0.11321587,0.05218584,0.04628864,0.08016517,0.04646823,-0.00398865,0.05223869,0.08583902,0.07831000,0.09636586,0.07474204,0.03457895,0.09162108,0.02547935,0.10708668,0.07038914,0.02585837,0.06384555,0.04129693,0.18328729,0.10817852,0.01619710,0.08917370,0.03085908,0.07817188,0.38875833,0.18275629,0.10982794,0.10752851,0.15348928,0, 00:00:10.7
109,0.04247034,0.04470579,0.06212929,0.08325414,0.04694709,0.05614184,0.08176585,0.06146383,0.04792926,0.08434036,0.08693802,0.09333201,0.06542847,0.07398979,0.07130753,0.06367701,0.03948997,0.05390545,0.06380790,0.04612144,0.15455039,0.13301812,0.11603624,0.05453533,0.05041919,0.08597441,0.05200698,0.00066425,0.05576178,0.08969893,0.08070725,0.09903900,0.07493278,0.03452944,0.09355252,0.02806121,0.11232806,0.07724365,0.02875983,0.06898326,0.04195314,0.18850617,0.10811045,0.01369808,0.09218398,0.03105018,0.08172707,0.41427830,0.19217786,0.11870097,0.11259110,0.15725453,0, 00:00:10.8
110,0.04578150,0.04770843,0.06666361,0.08912075,0.05151585,0.06025854,0.08774950,0.06668066,0.05009006,0.08920135,0.09165058,0.09683567,0.06843863,0.07932868,0.07632432,0.06936663,0.04434079,0.05951044,0.06878293,0.04683524,0.16245261,0.13632023,0.11949312,0.05741486,0.05523318,0.09221313,0.05824537,0.00668262,0.06015200,0.09396880,0.08345763,0.10225408,0.07587900,0.03485819,0.09615502,0.03133444,0.11801007,0.08546925,0.03272462,0.07484630,0.04317441,0.19453879,0.10815447,0.01157046,0.09557720,0.03190606,0.08615624,0.44039080,0.20278613,0.12842725,0.11826652,0.16200514,0, 00:00:10.9
111,0.04897533,0.05081519,0.07134782,0.09546255,0.05598508,0.06436452,0.09356972,0.07174093,0.05264068,0.09412457,0.09624947,0.10069548,0.07137981,0.08489265,0.08260151,0.07508207,0.04966402,0.06516089,0.07375597,0.04833337,0.17106253,0.13980065,0.12289185,0.06038613,0.06018902,0.09883786,0.06458328,0.01295857,0.06493913,0.09832018,0.08614641,0.10566388,0.07735944,0.03538320,0.09918605,0.03481677,0.12430361,0.09428679,0.03732575,0.08050384,0.04483200,0.20050046,0.10872631,0.00945457,0.09892143,0.03319635,0.09121751,0.46658939,0.21397609,0.13805628,0.12392981,0.16668265,0, 00:00:11.0
112,0.05100136,0.05302627,0.07485756,0.10021911,0.05885778,0.06719732,0.09702650,0.07472657,0.05485173,0.09837402,0.09987657,0.10342690,0.07386132,0.08896159,0.08670231,0.07954682,0.05372419,0.06877576,0.07772005,0.04970445,0.17692485,0.14233963,0.12554580,0.06253470,0.06344706,0.10482533,0.07038945,0.01813802,0.06897004,0.10179235,0.08749900,0.10831220,0.07840201,0.03556823,0.10145423,0.03654860,0.13157786,0.10264371,0.04136001,0.08340254,0.04540312,0.20414154,0.10825036,0.00676465,0.10117748,0.03355582,0.09566466,0.49139640,0.22456662,0.14414494,0.12545115,0.16921675,0, 00:00:11.1
113,0.05232289,0.05428905,0.07765555,0.10366949,0.06065708,0.06886070,0.09918767,0.07665944,0.05668434,0.10167050,0.10277394,0.10506414,0.07587106,0.09205989,0.08822502,0.08229048,0.05652788,0.07111353,0.08096262,0.05063760,0.18116261,0.14436568,0.12794808,0.06402858,0.06498638,0.10912020,0.07458151,0.02156465,0.07231072,0.10497646,0.08809789,0.11000624,0.07874572,0.03533662,0.10300528,0.03650989,0.13757391,0.10984636,0.04441229,0.08528922,0.04510483,0.20708553,0.10687784,0.00395207,0.10238142,0.03279567,0.09894985,0.51377368,0.23367053,0.14827044,0.12561767,0.17078735,0, 00:00:11.2
114,0.05362992,0.05550185,0.08025295,0.10735535,0.06187628,0.07018566,0.10129386,0.07865841,0.05832666,0.10521567,0.10553286,0.10648446,0.07772856,0.09510238,0.09079599,0.08413027,0.05867846,0.07334461,0.08440771,0.05126281,0.18559515,0.14609629,0.13020866,0.06537434,0.06619777,0.11301553,0.07840210,0.02431923,0.07552129,0.10760909,0.08881412,0.11146690,0.07851863,0.03490880,0.10416912,0.03639822,0.14314692,0.11637671,0.04710552,0.08753918,0.04449808,0.21055558,0.10547084,0.00112343,0.10334729,0.03187245,0.10174060,0.53424883,0.24175112,0.15221649,0.12630592,0.17263083,0, 00:00:11.3
115,0.05565551,0.05726676,0.08364991,0.11216297,0.06417062,0.07256263,0.10548741,0.08245444,0.06005247,0.10955626,0.10884839,0.10871450,0.08009505,0.09922668,0.09441296,0.08747505,0.06179510,0.07764184,0.08895965,0.05177147,0.19185440,0.14860280,0.13258211,0.06742799,0.06872076,0.11782537,0.08288065,0.02837598,0.07964543,0.11107743,0.09100629,0.11336640,0.07861533,0.03488972,0.10599404,0.03776275,0.14928561,0.12332171,0.05063549,0.09191050,0.04456360,0.21619891,0.10499170,-0.00120194,0.10486307,0.03199362,0.10497052,0.55471563,0.25010473,0.15895800,0.13007829,0.17569931,0, 00:00:11.4
116,0.05884064,0.05972322,0.08771539,0.11732126,0.06837042,0.07656983,0.11138830,0.08764468,0.06220296,0.11500810,0.11327659,0.11180602,0.08305110,0.10439452,0.09826080,0.09260701,0.06698268,0.08369198,0.09460101,0.05234359,0.20016164,0.15216373,0.13595089,0.07065225,0.07280771,0.12421139,0.08898611,0.03454699,0.08455624,0.11517123,0.09527537,0.11629741,0.07887540,0.03523777,0.10884612,0.04077390,0.15673470,0.13137424,0.05539523,0.09720091,0.04556399,0.22352852,0.10484482,-0.00207177,0.10694122,0.03332420,0.10892151,0.57546031,0.25981131,0.16741954,0.13548353,0.17952016,0, 00:00:11.5
117,0.06217558,0.06179366,0.09192073,0.12343199,0.07313383,0.08100767,0.11813607,0.09345411,0.06410331,0.12112791,0.11819193,0.11502531,0.08656195,0.10973066,0.10434289,0.09836571,0.07228220,0.09009038,0.10084379,0.05316204,0.20846102,0.15582709,0.13975008,0.07434874,0.07733331,0.13112080,0.09540630,0.04057668,0.08927950,0.11950737,0.09982442,0.11945183,0.07871201,0.03604636,0.11203562,0.04366959,0.16366543,0.13913321,0.05985011,0.10203579,0.04667350,0.23010185,0.10438807,-0.00202852,0.10947620,0.03504775,0.11248710,0.59658682,0.27015850,0.17625561,0.14034274,0.18313937,0, 00:00:11.6
118,0.06517655,0.06316756,0.09551919,0.12902182,0.07732081,0.08510051,0.12408040,0.09844925,0.06564639,0.12618861,0.12309139,0.11740036,0.08988433,0.11448392,0.11081666,0.10396232,0.07749110,0.09545787,0.10657321,0.05398060,0.21473433,0.15909785,0.14290288,0.07767162,0.08147506,0.13745341,0.10141011,0.04580990,0.09322160,0.12317486,0.10280568,0.12250392,0.07813236,0.03654944,0.11473764,0.04565148,0.16954239,0.14641726,0.06344201,0.10475455,0.04727137,0.23507102,0.10323787,-0.00323623,0.11252265,0.03616685,0.11578292,0.61943769,0.28077602,0.18336439,0.14202486,0.18593059,0, 00:00:11.7
119,0.06677111,0.06336521,0.09783161,0.13325219,0.07985109,0.08778357,0.12796672,0.10157582,0.06652950,0.12997340,0.12716110,0.11821930,0.09252379,0.11761955,0.11446097,0.10704435,0.08080307,0.09863414,0.11094926,0.05383768,0.21935970,0.16115643,0.14509560,0.08006997,0.08345242,0.14257050,0.10630906,0.04878716,0.09571534,0.12548542,0.10543584,0.12441069,0.07669852,0.03639336,0.11624024,0.04494044,0.17393531,0.15225762,0.06555579,0.10499735,0.04686577,0.23860848,0.10101192,-0.00407935,0.11520126,0.03521878,0.11743718,0.64106447,0.29014745,0.18707594,0.14085327,0.18671559,0, 00:00:11.8
120,0.06796294,0.06308230,0.09997322,0.13704769,0.08211325,0.09005725,0.13115153,0.10410140,0.06698322,0.13307256,0.13062485,0.11836112,0.09494445,0.12035031,0.11673393,0.10985193,0.08313062,0.10107043,0.11498354,0.05315664,0.22388670,0.16320311,0.14679545,0.08231956,0.08479262,0.14655674,0.11017806,0.05028831,0.09747600,0.12754954,0.10888839,0.12613724,0.07532897,0.03624878,0.11738478,0.04347419,0.17792772,0.15707168,0.06673123,0.10479569,0.04617593,0.24223210,0.10004798,-0.00220434,0.11741792,0.03344600,0.11810445,0.66200542,0.29862970,0.19010212,0.14016543,0.18675216,0, 00:00:11.9
121,0.06991438,0.06338378,0.10271214,0.14157280,0.08461748,0.09282973,0.13551582,0.10762750,0.06741378,0.13683510,0.13431054,0.11899399,0.09725919,0.12378145,0.11925126,0.11307707,0.08634072,0.10459834,0.11950011,0.05188202,0.22959550,0.16526267,0.14880681,0.08472785,0.08699066,0.15118097,0.11448682,0.05237183,0.09957132,0.13012521,0.11138180,0.12760636,0.07345381,0.03607814,0.11872053,0.04308274,0.18148763,0.16229045,0.06826014,0.10635518,0.04545072,0.24512161,0.09941550,-0.00165151,0.11954118,0.03222818,0.11895913,0.68439710,0.30703586,0.19532482,0.14129645,0.18797484,0, 00:00:12.0
122,0.07331494,0.06508656,0.10676512,0.14725596,0.08894537,0.09699235,0.14180881,0.11278747,0.06841408,0.14175379,0.13892117,0.12094738,0.09996928,0.12867141,0.12346912,0.11775364,0.09184586,0.11003492,0.12521474,0.05149621,0.23699786,0.16811141,0.15093064,0.08787796,0.09120514,0.15791376,0.12099211,0.05751943,0.10312261,0.13380148,0.11338110,0.12978372,0.07236704,0.03614705,0.12098878,0.04535595,0.18684010,0.16969022,0.07130462,0.11078302,0.04536875,0.24918687,0.09843792,-0.00267029,0.12201241,0.03267995,0.12113722,0.70768970,0.31677115,0.20466334,0.14435239,0.19025037,0, 00:00:12.1
123,0.07693529,0.06701694,0.11115935,0.15299372,0.09342317,0.10155007,0.14820179,0.11816449,0.06974825,0.14703964,0.14366144,0.12346957,0.10286602,0.13388117,0.12916911,0.12305566,0.09822895,0.11586269,0.13121611,0.05164533,0.24551088,0.17098781,0.15308742,0.09120339,0.09599653,0.16525057,0.12813587,0.06394805,0.10734531,0.13771807,0.11539870,0.13254841,0.07181587,0.03637620,0.12359903,0.04828216,0.19252785,0.17824867,0.07529416,0.11593722,0.04552250,0.25389335,0.09764419,-0.00423675,0.12445237,0.03362666,0.12391262,0.73149765,0.32739002,0.21499869,0.14733018,0.19269508,0, 00:00:12.2
124,0.08051871,0.06884354,0.11557680,0.15893151,0.09755865,0.10611083,0.15424350,0.12333170,0.07127329,0.15221535,0.14834641,0.12603007,0.10587855,0.13912904,0.13495591,0.12887780,0.10451175,0.12173871,0.13726744,0.05202327,0.25340047,0.17393677,0.15544342,0.09455879,0.10074381,0.17215128,0.13524951,0.07068917,0.11184127,0.14147858,0.11731238,0.13494076,0.07162257,0.03667290,0.12624614,0.05127750,0.19821028,0.18724665,0.07981683,0.12081210,0.04553502,0.25842997,0.09701893,-0.00591183,0.12649007,0.03467546,0.12696110,0.75555676,0.33838657,0.22482882,0.14971378,0.19515000,0, 00:00:12.3
125,0.08258451,0.06963385,0.11856580,0.16330279,0.09979253,0.10951455,0.15792535,0.12651902,0.07219638,0.15627062,0.15182117,0.12697951,0.10840775,0.14281157,0.13778673,0.13266790,0.10959575,0.12542070,0.14215338,0.05191227,0.25845051,0.17573880,0.15731086,0.09691972,0.10349887,0.17772999,0.14155973,0.07604739,0.11543611,0.14420797,0.11800522,0.13621292,0.07046227,0.03631561,0.12758221,0.05209677,0.20343287,0.19559428,0.08352290,0.12291934,0.04456702,0.26125869,0.09503838,-0.00855774,0.12722887,0.03434988,0.12887216,0.77766913,0.34842747,0.23090822,0.14829886,0.19609454,0, 00:00:12.4
126,0.08351316,0.06958134,0.12067871,0.16698331,0.10077303,0.11145783,0.16017269,0.12863706,0.07237806,0.15925944,0.15416639,0.12662095,0.11022107,0.14545910,0.14037167,0.13478257,0.11281223,0.12764575,0.14612997,0.05099502,0.26201385,0.17626216,0.15843670,0.09838048,0.10452312,0.18123230,0.14633720,0.07936859,0.11824355,0.14599752,0.11786875,0.13632537,0.06838964,0.03528289,0.12785138,0.05110725,0.20832515,0.20224743,0.08598100,0.12365617,0.04296072,0.26350987,0.09186534,-0.01182429,0.12703018,0.03265735,0.12945320,0.79779124,0.35666981,0.23457882,0.14548680,0.19608988,0, 00:00:12.5
127,0.08447888,0.06966006,0.12298036,0.17066532,0.10154641,0.11315311,0.16260795,0.13088839,0.07235090,0.16206065,0.15602131,0.12626815,0.11170201,0.14822404,0.14409630,0.13638188,0.11547356,0.13007675,0.15003222,0.04972019,0.26609597,0.17673187,0.15912989,0.09946498,0.10529510,0.18497455,0.15080763,0.08226194,0.12108506,0.14738813,0.11758084,0.13621254,0.06651014,0.03421751,0.12767775,0.05025487,0.21306837,0.20817354,0.08834320,0.12488835,0.04153619,0.26591349,0.08890127,-0.01504220,0.12619883,0.03087040,0.12963992,0.81640524,0.36380637,0.23815545,0.14364098,0.19622566,0, 00:00:12.6
128,0.08674674,0.07068340,0.12651291,0.17566632,0.10389283,0.11634771,0.16714709,0.13511005,0.07269793,0.16574831,0.15856975,0.12728460,0.11355032,0.15235624,0.14910705,0.13980499,0.12016167,0.13470627,0.15504287,0.04818308,0.27222574,0.17798612,0.16010728,0.10143507,0.10798649,0.19035846,0.15623744,0.08783381,0.12535807,0.14982487,0.11848462,0.13674852,0.06561573,0.03349899,0.12824778,0.05184890,0.21765801,0.21536034,0.09207227,0.12916338,0.04110120,0.26990828,0.08691371,-0.01795374,0.12595852,0.03038008,0.13065195,0.83483773,0.37155759,0.24617736,0.14567363,0.19754231,0, 00:00:12.7
129,0.09009556,0.07253486,0.13082248,0.18145373,0.10803550,0.12075257,0.17288154,0.14040312,0.07369681,0.17021601,0.16183797,0.12935968,0.11577262,0.15751947,0.15424210,0.14466089,0.12707204,0.14077781,0.16075926,0.04683096,0.27987540,0.17967543,0.16117238,0.10388450,0.11214522,0.19658904,0.16319257,0.09620107,0.13100533,0.15274233,0.12028117,0.13824727,0.06554683,0.03328188,0.12961185,0.05531949,0.22355095,0.22416815,0.09731214,0.13500755,0.04115590,0.27545014,0.08591615,-0.02126753,0.12624550,0.03109242,0.13265647,0.85331839,0.38065040,0.25664073,0.14889859,0.19919078,0, 00:00:12.8
130,0.09327385,0.07437598,0.13533966,0.18780798,0.11216261,0.12524757,0.17854451,0.14577028,0.07481204,0.17519780,0.16514228,0.13152510,0.11809701,0.16286242,0.16044545,0.14954834,0.13379812,0.14717020,0.16637015,0.04591494,0.28770113,0.18154033,0.16269064,0.10654734,0.11641525,0.20313816,0.17033252,0.10491975,0.13698335,0.15567529,0.12228068,0.13978909,0.06574703,0.03320787,0.13121516,0.05888494,0.22983912,0.23316412,0.10305309,0.14093471,0.04130128,0.28131956,0.08490167,-0.02469277,0.12656036,0.03198734,0.13473874,0.87073213,0.38993683,0.26725459,0.15187487,0.20052724,0, 00:00:12.9
131,0.09582071,0.07590139,0.13930368,0.19353768,0.11542328,0.12930962,0.18323408,0.15033925,0.07583724,0.18004401,0.16823243,0.13309652,0.12020361,0.16758882,0.16606393,0.15408601,0.14029506,0.15266371,0.17134272,0.04504284,0.29425627,0.18306571,0.16441333,0.10887630,0.12001814,0.20915872,0.17739338,0.11345865,0.14266746,0.15807454,0.12395900,0.14094388,0.06556201,0.03293667,0.13239649,0.06174989,0.23557590,0.24190211,0.10868741,0.14523160,0.04099647,0.28654146,0.08325389,-0.02844139,0.12653852,0.03259229,0.13654716,0.88718301,0.39907560,0.27602881,0.15241352,0.20112409,0, 00:00:13.0
132,0.09701969,0.07601333,0.14170891,0.19705948,0.11756396,0.13192430,0.18556264,0.15295069,0.07619880,0.18343134,0.17000374,0.13298261,0.12151890,0.17057395,0.16793782,0.15650360,0.14485402,0.15576868,0.17485715,0.04328797,0.29825917,0.18327720,0.16475713,0.11017343,0.12127873,0.21320926,0.18268096,0.11959061,0.14690797,0.15888347,0.12407655,0.14113934,0.06414381,0.03204729,0.13211410,0.06189099,0.23957014,0.24890891,0.11294598,0.14644656,0.03946329,0.28992426,0.08001906,-0.03276637,0.12539524,0.03153094,0.13686527,0.90305698,0.40647560,0.28051174,0.14930125,0.20029496,0, 00:00:13.1
133,0.09793768,0.07581125,0.14380310,0.19984794,0.11882172,0.13373661,0.18729420,0.15517020,0.07592647,0.18615249,0.17107530,0.13229455,0.12236565,0.17322490,0.16997993,0.15838075,0.14809197,0.15812580,0.17764667,0.04077262,0.30157629,0.18251538,0.16415288,0.11103652,0.12165747,0.21627414,0.18696471,0.12403645,0.15040302,0.15913540,0.12397531,0.14044856,0.06208808,0.03074738,0.13117959,0.06102317,0.24208029,0.25428581,0.11609499,0.14681242,0.03752034,0.29367039,0.07660305,-0.03727964,0.12380148,0.02963314,0.13633919,0.91919339,0.41245440,0.28361362,0.14581008,0.19955689,0, 00:00:13.2
134,0.09916076,0.07608026,0.14638910,0.20369624,0.12038290,0.13604935,0.19021620,0.15845993,0.07555576,0.18892613,0.17252539,0.13205880,0.12328014,0.17639421,0.17191793,0.16081843,0.15159351,0.16161971,0.18076637,0.03751290,0.30668336,0.18237294,0.16408230,0.11200712,0.12271181,0.21936534,0.19142079,0.12897974,0.15412821,0.15929313,0.12422623,0.13977873,0.06006861,0.02944758,0.13050959,0.06087576,0.24502964,0.25967541,0.11932212,0.14849573,0.03574767,0.29788727,0.07335299,-0.04178370,0.12246804,0.02802685,0.13575326,0.93550289,0.41821313,0.28836921,0.14448380,0.19950099,0, 00:00:13.3
135,0.10188431,0.07743415,0.15008405,0.20888740,0.12404012,0.14003821,0.19560365,0.16385703,0.07589420,0.19256818,0.17496012,0.13325763,0.12488167,0.18097049,0.17588916,0.16505389,0.15766647,0.16767305,0.18546021,0.03501856,0.31374803,0.18315446,0.16444214,0.11393566,0.12605612,0.22486684,0.19770090,0.13698131,0.15907083,0.16086492,0.12525944,0.14033251,0.05894569,0.02870005,0.13092662,0.06348835,0.24996623,0.26696047,0.12414769,0.15295638,0.03461787,0.30293539,0.07078896,-0.04541658,0.12173910,0.02803340,0.13628581,0.95204961,0.42519566,0.29697567,0.14640816,0.20095791,0, 00:00:13.4
136,0.10485803,0.07882294,0.15373980,0.21438698,0.12866925,0.14466058,0.20161264,0.16977304,0.07667340,0.19676024,0.17812665,0.13471274,0.12693748,0.18577138,0.18082732,0.16986300,0.16453755,0.17427993,0.19097780,0.03322566,0.32049271,0.18419416,0.16546167,0.11661772,0.13004017,0.23091634,0.20425741,0.14557505,0.16391152,0.16292258,0.12622496,0.14126661,0.05727071,0.02836634,0.13182168,0.06649365,0.25390384,0.27472576,0.12932922,0.15739934,0.03354950,0.30684802,0.06867144,-0.04814826,0.12160436,0.02853255,0.13709331,0.96888149,0.43297419,0.30579555,0.14804117,0.20278238,0, 00:00:13.5
137,0.10805292,0.08015914,0.15761866,0.22011660,0.13329585,0.14967282,0.20858161,0.17615244,0.07768204,0.20154874,0.18148530,0.13629910,0.12930492,0.19079997,0.18661271,0.17499752,0.17132060,0.18158250,0.19707298,0.03189724,0.32720226,0.18559712,0.16644546,0.11965372,0.13446705,0.23734559,0.21086425,0.15400885,0.16877609,0.16520688,0.12751721,0.14259805,0.05540352,0.02835705,0.13299233,0.06970342,0.25753841,0.28260276,0.13469177,0.16264392,0.03275654,0.31012660,0.06603846,-0.05048895,0.12180891,0.02936394,0.13805979,0.98569727,0.44114426,0.31575555,0.15050431,0.20488578,0, 00:00:13.6
138,0.11061586,0.08099312,0.16089432,0.22520813,0.13742222,0.15443046,0.21434931,0.18135130,0.07848894,0.20549804,0.18444145,0.13720350,0.13136244,0.19516678,0.19222413,0.17986907,0.17838266,0.18790826,0.20278212,0.03079435,0.33212665,0.18674219,0.16725618,0.12235871,0.13827917,0.24302028,0.21754257,0.16224399,0.17314954,0.16735053,0.12868230,0.14368622,0.05337523,0.02807944,0.13390809,0.07246941,0.26222023,0.29090413,0.14020576,0.16660561,0.03169304,0.31201515,0.06263572,-0.05252573,0.12163325,0.03002877,0.13918878,1.00265872,0.44940031,0.32435742,0.15110287,0.20534784,0, 00:00:13.7
139,0.11205379,0.08076292,0.16273484,0.22897922,0.13992012,0.15765779,0.21821505,0.18486077,0.07862230,0.20828816,0.18650375,0.13682917,0.13274281,0.19791886,0.19632758,0.18238260,0.18336436,0.19200276,0.20770834,0.02969811,0.33425322,0.18669192,0.16717203,0.12437726,0.14015089,0.24682227,0.22270492,0.16807950,0.17623807,0.16853763,0.12862289,0.14359537,0.05076751,0.02731552,0.13370898,0.07284234,0.26564345,0.29781306,0.14452609,0.16819403,0.03008642,0.31179753,0.05885212,-0.05520574,0.12093731,0.02911856,0.13917568,1.01910138,0.45625830,0.32975912,0.14880548,0.20448355,0, 00:00:13.8
140,0.11367584,0.08046594,0.16468830,0.23298587,0.14176115,0.16059746,0.22250593,0.18882611,0.07851313,0.21159987,0.18862465,0.13645524,0.13400544,0.20073693,0.20037495,0.18463781,0.18777347,0.19631992,0.21261582,0.02837155,0.33738038,0.18661678,0.16672410,0.12639476,0.14193381,0.25052723,0.22707674,0.17302872,0.17912510,0.16978571,0.12842733,0.14358398,0.04791319,0.02642906,0.13347477,0.07302897,0.26792675,0.30391729,0.14833879,0.17019933,0.02870576,0.31149435,0.05509333,-0.05767237,0.12046937,0.02824437,0.13911270,1.03779447,0.46248403,0.33553603,0.14766401,0.20423053,0, 00:00:13.9
141,0.11674363,0.08131918,0.16789943,0.23803675,0.14582452,0.16500968,0.22913155,0.19486935,0.07879815,0.21564397,0.19166821,0.13750474,0.13588263,0.20494860,0.20486961,0.18873315,0.19467212,0.20300032,0.21868919,0.02744153,0.34356138,0.18723474,0.16735104,0.12912695,0.14588314,0.25609869,0.23333819,0.18061815,0.18334529,0.17222892,0.12906525,0.14419006,0.04589322,0.02602642,0.13439970,0.07573863,0.27149379,0.31177729,0.15339702,0.17525214,0.02842832,0.31291491,0.05246208,-0.05966185,0.12070432,0.02899415,0.14025941,1.05810726,0.47003302,0.34553754,0.15077466,0.20573960,0, 00:00:14.0
142,0.12090155,0.08356461,0.17230347,0.24385057,0.15131609,0.17072874,0.23681861,0.20211969,0.07970238,0.22022440,0.19576980,0.14026973,0.13824907,0.21030338,0.21015690,0.19457491,0.20328891,0.21106419,0.22549023,0.02706774,0.34952053,0.18816680,0.16841337,0.13219628,0.15160440,0.26267299,0.24140385,0.19090991,0.18920474,0.17583008,0.12860692,0.14608769,0.04509356,0.02639956,0.13624534,0.08037025,0.27620867,0.32172287,0.16011798,0.18274772,0.02764389,0.31301433,0.04996324,-0.06325535,0.12139043,0.03130474,0.14307606,1.08083808,0.47929612,0.35905272,0.15440795,0.20926109,0, 00:00:14.1
143,0.12495347,0.08616163,0.17701550,0.25018981,0.15663683,0.17628619,0.24388853,0.20929162,0.08102451,0.22523658,0.19975747,0.14358477,0.14061067,0.21583442,0.21564947,0.19997670,0.21182740,0.21902271,0.23226251,0.02703908,0.35281822,0.18864128,0.16884384,0.13491221,0.15737127,0.26956522,0.24947044,0.20175675,0.19607522,0.18016379,0.12674914,0.14814056,0.04339958,0.02698240,0.13811204,0.08505253,0.28204438,0.33233431,0.16757849,0.19169198,0.02558141,0.31216839,0.04655079,-0.06984927,0.12215231,0.03405394,0.14680576,1.10505641,0.48893747,0.37368917,0.15663160,0.21355662,0, 00:00:14.2
144,0.12876114,0.08886962,0.18178304,0.25629386,0.16125327,0.18166432,0.25030890,0.21613839,0.08288317,0.23013246,0.20345742,0.14691050,0.14299937,0.22139977,0.22320610,0.20531584,0.22025272,0.22695480,0.23879562,0.02733584,0.35510835,0.18877350,0.16896513,0.13758142,0.16288894,0.27645487,0.25713915,0.21278070,0.20364821,0.18454249,0.12409435,0.14960262,0.04124901,0.02743798,0.13993363,0.08971174,0.28758797,0.34321257,0.17568223,0.20107108,0.02268573,0.31123593,0.04198292,-0.07832356,0.12246063,0.03696300,0.15056446,1.12403917,0.49842337,0.38805860,0.15796533,0.21804802,0, 00:00:14.3
145,0.13148797,0.09081544,0.18550637,0.26109773,0.16487104,0.18564370,0.25412354,0.22059339,0.08526476,0.23330218,0.20615518,0.14904575,0.14481674,0.22575651,0.22798412,0.20915256,0.22727846,0.23263890,0.24392834,0.02764263,0.35406399,0.18730833,0.16870473,0.13943782,0.16659647,0.28171927,0.26364785,0.22259369,0.21085571,0.18794599,0.11998840,0.14996175,0.03833568,0.02718730,0.14083166,0.09287123,0.29415420,0.35346425,0.18346640,0.20766960,0.01857352,0.30887353,0.03623103,-0.08838350,0.12155854,0.03906256,0.15305427,1.13375974,0.50654328,0.39838126,0.15509328,0.22148995,0, 00:00:14.4
146,0.13310629,0.09196270,0.18801452,0.26449451,0.16674717,0.18811145,0.25619760,0.22363268,0.08752102,0.23574598,0.20817450,0.14992253,0.14621694,0.22872987,0.22915326,0.21066816,0.23209158,0.23650585,0.24826448,0.02831310,0.35189283,0.18495061,0.16797198,0.14072874,0.16821177,0.28518996,0.26807293,0.22991027,0.21706150,0.18984370,0.11529093,0.14963356,0.03555169,0.02668247,0.14078629,0.09399977,0.29894230,0.36186516,0.19005057,0.21260624,0.01482747,0.30717888,0.02970283,-0.09819547,0.11950841,0.03995739,0.15314531,1.13308489,0.51231164,0.40552068,0.15056138,0.22421923,0, 00:00:14.5
147,0.13503550,0.09336597,0.19077578,0.26802757,0.16878264,0.19094333,0.25921687,0.22752503,0.08969646,0.23889102,0.21019882,0.15093294,0.14780767,0.23193955,0.23185259,0.21203086,0.23699680,0.24137953,0.25296441,0.02925357,0.35200512,0.18273941,0.16683319,0.14228094,0.17016163,0.28863433,0.27222329,0.23702550,0.22344024,0.19203253,0.11260018,0.15006609,0.03400552,0.02653507,0.14107826,0.09547436,0.30289644,0.36937073,0.19658498,0.21874514,0.01293030,0.30891764,0.02437337,-0.10583267,0.11734621,0.04126610,0.15276067,1.12995243,0.51693982,0.41424942,0.14895566,0.22735208,0, 00:00:14.6
148,0.13855247,0.09615222,0.19475850,0.27313530,0.17271531,0.19556993,0.26478815,0.23346569,0.09229469,0.24307288,0.21315110,0.15357818,0.14991544,0.23660433,0.23558153,0.21554577,0.24430928,0.24877106,0.25901806,0.03033069,0.35444281,0.18181869,0.16689605,0.14479458,0.17427762,0.29353067,0.27820617,0.24746175,0.23152275,0.19541663,0.11247662,0.15143251,0.03299406,0.02702506,0.14264488,0.09946740,0.30836928,0.37837082,0.20470296,0.22791238,0.01152037,0.31310326,0.02069181,-0.11183301,0.11622630,0.04430316,0.15388101,1.12967014,0.52278298,0.42706308,0.15115114,0.23226941,0, 00:00:14.7
149,0.14265242,0.09928581,0.19915929,0.27849811,0.17695507,0.20084707,0.27088845,0.23999299,0.09501325,0.24759199,0.21654464,0.15676479,0.15236008,0.24176075,0.24049394,0.21972814,0.25247332,0.25684029,0.26545617,0.03096651,0.35666445,0.18154156,0.16740903,0.14788330,0.17922428,0.29928866,0.28480962,0.25932992,0.24042480,0.19939768,0.11411490,0.15358862,0.03195375,0.02822650,0.14477599,0.10430361,0.31374151,0.38794655,0.21381469,0.23792727,0.00940832,0.31771007,0.01705462,-0.11624867,0.11504506,0.04839529,0.15585253,1.13015318,0.52940208,0.44137263,0.15413161,0.23793526,0, 00:00:14.8
150,0.14656460,0.10237090,0.20362508,0.28417796,0.18146037,0.20599541,0.27704126,0.24661210,0.09766708,0.25136048,0.22014031,0.15988840,0.15479156,0.24693128,0.24552090,0.22414638,0.26059839,0.26504311,0.27169487,0.03078873,0.35683134,0.18102896,0.16688113,0.15108939,0.18418254,0.30482221,0.29097143,0.27115986,0.24959803,0.20339602,0.11636671,0.15615192,0.03051084,0.02959770,0.14701316,0.10908036,0.31910485,0.39721867,0.22320530,0.24830887,0.00627275,0.32076555,0.01369502,-0.12020591,0.11437301,0.05290105,0.15809591,1.13147974,0.53607887,0.45684150,0.15672262,0.24213620,0, 00:00:14.9
151,0.15016145,0.10538936,0.20789532,0.28894886,0.18548262,0.21072949,0.28208342,0.25255749,0.10033993,0.25420725,0.22352953,0.16277954,0.15706852,0.25171411,0.24839698,0.22831845,0.26807633,0.27258551,0.27724349,0.02987080,0.35439423,0.17975765,0.16609541,0.15383549,0.18870558,0.30997846,0.29683784,0.28281206,0.25891268,0.20684995,0.11699965,0.15844499,0.02874887,0.03075530,0.14899486,0.11345824,0.32417297,0.40626308,0.23259860,0.25744754,0.00162724,0.32150170,0.01024005,-0.12597659,0.11400737,0.05717549,0.16047356,1.13279438,0.54242265,0.47123048,0.15514766,0.24516225,0, 00:00:15.0
152,0.15206143,0.10690174,0.21037152,0.29194161,0.18751413,0.21349768,0.28400749,0.25585508,0.10269514,0.25512585,0.22554362,0.16373585,0.15858874,0.25444913,0.24952252,0.22969528,0.27320340,0.27709949,0.28074729,0.02840813,0.34712884,0.17695156,0.16435862,0.15534620,0.19035135,0.31259984,0.30084389,0.29161885,0.26681197,0.20844962,0.11399037,0.15904747,0.02522812,0.03090387,0.14945984,0.11449649,0.32757422,0.41305545,0.24043384,0.26224259,-0.00520179,0.32130662,0.00454188,-0.13503078,0.11280777,0.05928745,0.16104704,1.13057613,0.54672825,0.47969997,0.14622574,0.24816099,0, 00:00:15.1
153,0.15311109,0.10767052,0.21187484,0.29342511,0.18875073,0.21504471,0.28503129,0.25837320,0.10497070,0.25533870,0.22680368,0.16350414,0.15981653,0.25608969,0.24931419,0.22931820,0.27627805,0.28065038,0.28358847,0.02805123,0.34097388,0.17367955,0.16212142,0.15646920,0.19040120,0.31362629,0.30312520,0.29777655,0.27340800,0.20879118,0.11082754,0.15871198,0.02146381,0.03083635,0.14899650,0.11384366,0.32981014,0.41741785,0.24673699,0.26519006,-0.01162442,0.32300997,-0.00148964,-0.14288478,0.11096524,0.06019130,0.16001481,1.12547219,0.54896599,0.48468456,0.13790897,0.24997410,0, 00:00:15.2
154,0.15458998,0.10881349,0.21369019,0.29540208,0.18954451,0.21699926,0.28734395,0.26188171,0.10758367,0.25671804,0.22794175,0.16344371,0.16112071,0.25805572,0.25045234,0.22941875,0.27983198,0.28537887,0.28708085,0.02812121,0.33954632,0.17084350,0.16012214,0.15780537,0.19101278,0.31492910,0.30546647,0.30431226,0.27974349,0.20851681,0.10889499,0.15858784,0.01852570,0.03102339,0.14881530,0.11431886,0.33223411,0.42150006,0.25323960,0.26937619,-0.01577828,0.32680017,-0.00547258,-0.14843537,0.10891852,0.06161831,0.15888786,1.11999416,0.55086130,0.49046251,0.13432100,0.25158766,0, 00:00:15.3
155,0.15718001,0.11090490,0.21641698,0.29836312,0.19216931,0.22039692,0.29180837,0.26703894,0.11055328,0.25908703,0.22968669,0.16443278,0.16284601,0.26113412,0.25292793,0.23119642,0.28570524,0.29199460,0.29169637,0.02825552,0.34098801,0.16898823,0.15875152,0.16014059,0.19355993,0.31750441,0.30943805,0.31370288,0.28674743,0.20898505,0.10802227,0.15927841,0.01678257,0.03211371,0.14971818,0.11727262,0.33548754,0.42722309,0.26101786,0.27554488,-0.01866528,0.33129278,-0.00766235,-0.15213966,0.10752808,0.06444652,0.15867332,1.11317480,0.55367184,0.49933082,0.13461146,0.25327682,0, 00:00:15.4
156,0.15988420,0.11277307,0.21907362,0.30134198,0.19511931,0.22393805,0.29622352,0.27213734,0.11353763,0.26150829,0.23152502,0.16552062,0.16461141,0.26424158,0.25574300,0.23317981,0.29199898,0.29867527,0.29644737,0.02866627,0.34311327,0.16753069,0.15753530,0.16275050,0.19637719,0.32046354,0.31306937,0.32358584,0.29366544,0.20970498,0.10743668,0.15996000,0.01559041,0.03362340,0.15091629,0.12072936,0.33871448,0.43320796,0.26922265,0.28136438,-0.02125213,0.33531454,-0.00958667,-0.15513098,0.10637671,0.06774481,0.15879068,1.10504138,0.55674785,0.50814307,0.13478798,0.25447920,0, 00:00:15.5
157,0.16238761,0.11449746,0.22165470,0.30430278,0.19766948,0.22729577,0.30062345,0.27712044,0.11625458,0.26385605,0.23349935,0.16664968,0.16636470,0.26721150,0.25902158,0.23483494,0.29791826,0.30537540,0.30085248,0.02901598,0.34519848,0.16634661,0.15670963,0.16527218,0.19905338,0.32302564,0.31611419,0.33309013,0.30015567,0.21060738,0.10712204,0.16034570,0.01444909,0.03530306,0.15212645,0.12413938,0.34145278,0.43871424,0.27738315,0.28635612,-0.02370954,0.33935878,-0.01134762,-0.15768643,0.10544133,0.07125713,0.15880749,1.09468782,0.55963343,0.51617849,0.13477021,0.25512594,0, 00:00:15.6
158,0.16381757,0.11534780,0.22308186,0.30651486,0.19948071,0.22971123,0.30309191,0.28035539,0.11835191,0.26520053,0.23454298,0.16662478,0.16763768,0.26892754,0.25970477,0.23490864,0.30265927,0.31021091,0.30394939,0.02900065,0.34512472,0.16401690,0.15558495,0.16716887,0.20032437,0.32421520,0.31812686,0.34109184,0.30533645,0.21022183,0.10601560,0.16045241,0.01274771,0.03650069,0.15257329,0.12586425,0.34407395,0.44312236,0.28457931,0.28825212,-0.02672714,0.34156853,-0.01400666,-0.16052565,0.10413716,0.07381502,0.15826298,1.08506846,0.56163633,0.52061063,0.13155983,0.25435844,0, 00:00:15.7
159,0.16345391,0.11461620,0.22282225,0.30679762,0.19899271,0.23005728,0.30298826,0.28135744,0.11925571,0.26451689,0.23420265,0.16484758,0.16794722,0.26877293,0.25957063,0.23313880,0.30405438,0.31221372,0.30508161,0.02790395,0.34225634,0.16043471,0.15310216,0.16771834,0.19885820,0.32292593,0.31802467,0.34531718,0.30830339,0.20800802,0.10330343,0.15923457,0.01009839,0.03708090,0.15154390,0.12434279,0.34396836,0.44452769,0.28937200,0.28702527,-0.03064064,0.34164828,-0.01812519,-0.16370001,0.10170089,0.07429170,0.15616401,1.07550907,0.56115073,0.52074426,0.12550506,0.25196370,0, 00:00:15.8
160,0.16284207,0.11337701,0.22218911,0.30633858,0.19764796,0.22966821,0.30238113,0.28194627,0.11935466,0.26299137,0.23319350,0.16258235,0.16780709,0.26814821,0.25780830,0.23073378,0.30427963,0.31345019,0.30553180,0.02607241,0.33903909,0.15656990,0.15012833,0.16763081,0.19663863,0.32089230,0.31669611,0.34779939,0.31024891,0.20528048,0.10049719,0.15706633,0.00681768,0.03731628,0.14967747,0.12217039,0.34346110,0.44417483,0.29292536,0.28530312,-0.03471928,0.34105456,-0.02226374,-0.16694660,0.09884135,0.07411560,0.15313628,1.06517732,0.55913895,0.52004129,0.11963160,0.24886101,0, 00:00:15.9
161,0.16289625,0.11280775,0.22226928,0.30626854,0.19771598,0.23022579,0.30344549,0.28399271,0.11937987,0.26215988,0.23261099,0.16083243,0.16798215,0.26821536,0.25707850,0.22924486,0.30560285,0.31622034,0.30660832,0.02394625,0.33661684,0.15306374,0.14746037,0.16788980,0.19556274,0.31965777,0.31610495,0.35135397,0.31251305,0.20323850,0.09839413,0.15551394,0.00397413,0.03772845,0.14804043,0.12142348,0.34391484,0.44427755,0.29667094,0.28600857,-0.03796830,0.34145939,-0.02568972,-0.16954726,0.09647943,0.07460612,0.15018076,1.05339694,0.55696440,0.52220654,0.11733405,0.24691495,0, 00:00:16.0
162,0.16422486,0.11321858,0.22331940,0.30779436,0.19973844,0.23230499,0.30659413,0.28758538,0.11990564,0.26235825,0.23283221,0.16026834,0.16867743,0.26937836,0.25814122,0.22932215,0.30953801,0.32078251,0.30869338,0.02222766,0.33667555,0.15010919,0.14581266,0.16897815,0.19641101,0.31936619,0.31688103,0.35765606,0.31559408,0.20232975,0.09763601,0.15480854,0.00200708,0.03869772,0.14753565,0.12295753,0.34333715,0.44607246,0.30169928,0.28866416,-0.04012244,0.34317043,-0.02849105,-0.17113957,0.09522050,0.07641485,0.14796332,1.04024673,0.55588144,0.52728891,0.11760671,0.24626251,0, 00:00:16.1
163,0.16551110,0.11381685,0.22432643,0.30985251,0.20114426,0.23451988,0.30980489,0.29112750,0.12050624,0.26249290,0.23319536,0.15998523,0.16948669,0.27070251,0.25952864,0.22963113,0.31352532,0.32534283,0.31084898,0.02064885,0.33692530,0.14735140,0.14442486,0.17017809,0.19763713,0.31975204,0.31792399,0.36432999,0.31865188,0.20161475,0.09740784,0.15413538,0.00043303,0.03984874,0.14710453,0.12464648,0.34254101,0.44796786,0.30693832,0.29096603,-0.04159753,0.34518641,-0.03114566,-0.17260614,0.09465013,0.07845228,0.14613537,1.02790165,0.55539417,0.53244686,0.11779662,0.24571744,0, 00:00:16.2
164,0.16665311,0.11439954,0.22548805,0.31174096,0.20313340,0.23687151,0.31291497,0.29456422,0.12112702,0.26249620,0.23378584,0.15997441,0.17031752,0.27202445,0.26102015,0.23015377,0.31740445,0.32984716,0.31275532,0.01940216,0.33740759,0.14488931,0.14295563,0.17157787,0.19908126,0.32012537,0.31873018,0.37100485,0.32181618,0.20100389,0.09748863,0.15379737,-0.00071622,0.04109110,0.14700268,0.12638059,0.34210369,0.44988394,0.31221098,0.29288146,-0.04251734,0.34703705,-0.03366341,-0.17401245,0.09430727,0.08064369,0.14474422,1.01708531,0.55538070,0.53747600,0.11774752,0.24500033,0, 00:00:16.3
165,0.16671364,0.11388383,0.22545357,0.31192812,0.20365399,0.23757836,0.31339493,0.29572719,0.12127799,0.26146629,0.23335345,0.15870126,0.17043290,0.27194032,0.26063523,0.22892012,0.31962624,0.33176348,0.31320632,0.01800123,0.33555165,0.14195211,0.14129236,0.17203364,0.19867693,0.31926450,0.31842065,0.37571731,0.32365978,0.19934595,0.09629937,0.15252921,-0.00239805,0.04196821,0.14582683,0.12616570,0.34080231,0.45071933,0.31639254,0.29203722,-0.04423380,0.34647080,-0.03710506,-0.17570129,0.09324563,0.08160073,0.14275597,1.00609374,0.55450505,0.53878129,0.11400412,0.24271993,0, 00:00:16.4
166,0.16555098,0.11262055,0.22474684,0.31121653,0.20213689,0.23641916,0.31182009,0.29531434,0.12069403,0.25931188,0.23170193,0.15635367,0.16981968,0.27064648,0.26059148,0.22570844,0.31943360,0.33174938,0.31232181,0.01629112,0.33166599,0.13784271,0.13837549,0.17111535,0.19639474,0.31649894,0.31644139,0.37761807,0.32442993,0.19696431,0.09324490,0.15043783,-0.00428833,0.04249611,0.14362150,0.12414190,0.33844870,0.44979405,0.31909537,0.28998938,-0.04674659,0.34445196,-0.04087998,-0.17848708,0.09132688,0.08120889,0.13985099,0.99461520,0.55174720,0.53784394,0.10853714,0.23963803,0, 00:00:16.5
167,0.16425809,0.11193906,0.22413835,0.30955809,0.19978841,0.23488234,0.30973411,0.29459459,0.12026127,0.25668487,0.22938649,0.15415868,0.16860174,0.26935872,0.25929481,0.22233951,0.31900924,0.33170021,0.31087369,0.01427843,0.32859617,0.13358648,0.13520776,0.16977260,0.19387199,0.31336635,0.31402549,0.37940979,0.32542041,0.19436342,0.09025343,0.14804885,-0.00559416,0.04279013,0.14125837,0.12244965,0.33624777,0.44884726,0.32198212,0.28881365,-0.04905087,0.34371299,-0.04467157,-0.18170379,0.08882525,0.08064628,0.13727452,0.98247510,0.54808289,0.53701305,0.10457326,0.23724470,0, 00:00:16.6
168,0.16399269,0.11236808,0.22440590,0.30900341,0.19878946,0.23471470,0.30980310,0.29557294,0.12042274,0.25533286,0.22755952,0.15335155,0.16787322,0.26911312,0.25685406,0.22015825,0.32006630,0.33379835,0.31034017,0.01249455,0.32777587,0.12996522,0.13322848,0.16928104,0.19297916,0.31141061,0.31291685,0.38379487,0.32759342,0.19301340,0.08961901,0.14642499,-0.00597622,0.04377874,0.13992359,0.12291458,0.33560988,0.44958830,0.32647094,0.29072008,-0.05033586,0.34527925,-0.04717797,-0.18296181,0.08629069,0.08153300,0.13554135,0.96867198,0.54481840,0.53957415,0.10500152,0.23636770,0, 00:00:16.7
169,0.16458133,0.11340430,0.22509032,0.30963027,0.19921219,0.23571965,0.31103003,0.29757923,0.12111798,0.25520682,0.22636896,0.15354905,0.16762182,0.26971596,0.25565284,0.21940616,0.32336080,0.33707392,0.31080264,0.01150247,0.32780859,0.12728639,0.13153028,0.16938400,0.19343136,0.31026158,0.31279081,0.39073232,0.33080894,0.19261654,0.08916324,0.14556012,-0.00588235,0.04541139,0.13935006,0.12522711,0.33658910,0.45201954,0.33226332,0.29381207,-0.05072274,0.34724176,-0.04934653,-0.18433177,0.08392612,0.08399802,0.13505505,0.95554787,0.54278290,0.54397649,0.10646379,0.23643413,0, 00:00:16.8
170,0.16516855,0.11454017,0.22581998,0.31020683,0.19956340,0.23651329,0.31239390,0.29992348,0.12196445,0.25498801,0.22529221,0.15394902,0.16740763,0.27042672,0.25517133,0.21872364,0.32650962,0.34064469,0.31130677,0.01098816,0.32796621,0.12425760,0.12987861,0.16942438,0.19395824,0.30941617,0.31292820,0.39799196,0.33440685,0.19244947,0.08782433,0.14476599,-0.00611077,0.04674558,0.13881637,0.12768300,0.33755839,0.45454323,0.33849555,0.29690599,-0.05083777,0.34847382,-0.05260195,-0.18821745,0.08167209,0.08698922,0.13512529,0.94255096,0.54102075,0.54830360,0.10725912,0.23700617,0, 00:00:16.9
171,0.16498175,0.11499961,0.22575660,0.31029481,0.19924222,0.23666100,0.31235915,0.30106112,0.12246671,0.25426716,0.22389810,0.15381245,0.16714925,0.27031925,0.25444609,0.21727189,0.32858416,0.34291464,0.31103861,0.01067921,0.32677785,0.12125161,0.12855937,0.16911860,0.19348496,0.30760813,0.31233341,0.40421751,0.33745423,0.19141552,0.08770231,0.14389852,-0.00576659,0.04818066,0.13788857,0.12881337,0.33834144,0.45601997,0.34415406,0.29752958,-0.05092817,0.35067782,-0.05615553,-0.19076009,0.07959160,0.08924237,0.13491048,0.92847145,0.53906304,0.54982740,0.10587130,0.23644012,0, 00:00:17.0
172,0.16298269,0.11409627,0.22430062,0.30858013,0.19707465,0.23513402,0.30995896,0.30022827,0.12198444,0.25233579,0.22143500,0.15205771,0.16628961,0.26857027,0.25196764,0.21402781,0.32750189,0.34277770,0.30910763,0.00887583,0.32391110,0.11740106,0.12666178,0.16786467,0.19064109,0.30355027,0.30917135,0.40663746,0.33887917,0.18901880,0.08817393,0.14226283,-0.00627021,0.04912234,0.13573891,0.12679231,0.33665082,0.45466119,0.34781241,0.29436952,-0.05142534,0.35231283,-0.05961407,-0.19209558,0.07730669,0.08949636,0.13323534,0.91438806,0.53540635,0.54603231,0.10170674,0.23468447,0, 00:00:17.1
173,0.16068327,0.11259780,0.22251220,0.30618560,0.19505024,0.23295206,0.30722037,0.29897422,0.12090086,0.24977843,0.21859787,0.14958116,0.16508734,0.26644742,0.24987161,0.20982014,0.32508990,0.34207672,0.30658418,0.00627485,0.32010043,0.11319048,0.12453385,0.16631071,0.18708007,0.29864022,0.30514857,0.40712044,0.33933029,0.18607911,0.08896623,0.14018607,-0.00737075,0.04971762,0.13315135,0.12382171,0.33372909,0.45166460,0.35023078,0.28999040,-0.05207279,0.35359102,-0.06294733,-0.19293037,0.07501105,0.08907575,0.13077873,0.90033513,0.53049850,0.54054528,0.09734575,0.23253439,0, 00:00:17.2
174,0.15884574,0.11130688,0.22072701,0.30411375,0.19390842,0.23105884,0.30569670,0.29856876,0.11985846,0.24762362,0.21621594,0.14730844,0.16401160,0.26450410,0.24672991,0.20574313,0.32315254,0.34183562,0.30454564,0.00362495,0.31756729,0.10972510,0.12255929,0.16510695,0.18389501,0.29435879,0.30124664,0.40713009,0.33937767,0.18342158,0.09067390,0.13858210,-0.00836212,0.05060908,0.13087374,0.12107857,0.32986066,0.44788149,0.35183838,0.28683355,-0.05187317,0.35541853,-0.06553955,-0.19218177,0.07332589,0.08864033,0.12794515,0.88600862,0.52521622,0.53666741,0.09512338,0.23083776,0, 00:00:17.3
175,0.15875323,0.11087353,0.22006910,0.30355567,0.19489487,0.23124768,0.30781603,0.30093861,0.11921024,0.24782060,0.21550168,0.14653252,0.16395186,0.26403907,0.24661440,0.20422709,0.32353643,0.34459612,0.30449456,0.00191094,0.31914032,0.10829771,0.12224498,0.16550043,0.18351847,0.29226434,0.29897025,0.40944880,0.33999947,0.18234755,0.09541654,0.13833420,-0.00786912,0.05270118,0.13020749,0.12095607,0.32720941,0.44548181,0.35400039,0.28718734,-0.04917069,0.35977373,-0.06503417,-0.18637004,0.07333996,0.08978495,0.12553625,0.87277544,0.52151984,0.53792423,0.09870442,0.23064031,0, 00:00:17.4
176,0.15931055,0.11072195,0.21999128,0.30363256,0.19676499,0.23243311,0.31105685,0.30409884,0.11868910,0.24942826,0.21537824,0.14641327,0.16438815,0.26415890,0.24720581,0.20383148,0.32544178,0.34855080,0.30493182,0.00060602,0.32175925,0.10758765,0.12262093,0.16664186,0.18461126,0.29167366,0.29790670,0.41354194,0.34101692,0.18219382,0.10048974,0.13902153,-0.00683107,0.05531684,0.13026533,0.12215155,0.32467529,0.44472671,0.35711044,0.28849572,-0.04574481,0.36313030,-0.06354010,-0.17993473,0.07425812,0.09198565,0.12403589,0.86195153,0.51966637,0.54128337,0.10343379,0.23134050,0, 00:00:17.5
177,0.15960082,0.11036419,0.21975906,0.30358475,0.19874266,0.23359706,0.31372598,0.30678198,0.11829879,0.25044844,0.21543650,0.14615987,0.16497874,0.26404333,0.24694362,0.20347305,0.32716063,0.35181695,0.30486155,-0.00022989,0.32377481,0.10688881,0.12311044,0.16774742,0.18577389,0.29096183,0.29722008,0.41737649,0.34196487,0.18212436,0.10468436,0.13974030,-0.00578496,0.05810850,0.13070278,0.12295101,0.32174030,0.44421044,0.36015636,0.28896055,-0.04244211,0.36534867,-0.06244934,-0.17505324,0.07587534,0.09416291,0.12295341,0.85263234,0.51860040,0.54411411,0.10668571,0.23180893,0, 00:00:17.6
178,0.15843022,0.10883132,0.21806015,0.30222276,0.19874614,0.23289672,0.31377381,0.30721623,0.11748598,0.25077781,0.21467258,0.14429979,0.16520026,0.26235574,0.24438095,0.20118688,0.32664523,0.35238904,0.30359602,-0.00068162,0.32340807,0.10553200,0.12356035,0.16796447,0.18474956,0.28892389,0.29486686,0.41789195,0.34123880,0.18103199,0.10757358,0.13983536,-0.00572047,0.06053937,0.13011755,0.12097460,0.31776547,0.44188473,0.36141136,0.28602710,-0.04003192,0.36524019,-0.06266560,-0.17051467,0.07704207,0.09483620,0.12101981,0.84538770,0.51675022,0.54203212,0.10566890,0.23085161,0, 00:00:17.7
179,0.15611233,0.10642534,0.21538568,0.29903752,0.19656034,0.23079696,0.31232351,0.30627179,0.11585199,0.24987404,0.21292554,0.14154612,0.16484380,0.25955808,0.24126045,0.19707027,0.32360739,0.35117024,0.30136508,-0.00171766,0.32179105,0.10327134,0.12325519,0.16754159,0.18188135,0.28495902,0.29097229,0.41494551,0.33890256,0.17919748,0.10958906,0.13894504,-0.00654598,0.06241175,0.12861398,0.11675095,0.31278989,0.43754321,0.36068520,0.28133553,-0.03822928,0.36393660,-0.06385733,-0.16562097,0.07770947,0.09409309,0.11811656,0.83969671,0.51330811,0.53682333,0.10322690,0.22961426,0, 00:00:17.8
180,0.15364191,0.10389495,0.21247414,0.29583153,0.19436640,0.22828886,0.31069627,0.30503267,0.11400539,0.24866654,0.21114938,0.13856290,0.16414556,0.25652832,0.23812045,0.19276272,0.32030618,0.34929213,0.29904637,-0.00294056,0.31992364,0.10092539,0.12248124,0.16681401,0.17873549,0.28067976,0.28665298,0.41094583,0.33595052,0.17736042,0.11135400,0.13793138,-0.00760911,0.06409590,0.12688302,0.11208702,0.30802432,0.43272960,0.35906646,0.27622983,-0.03627371,0.36207250,-0.06482823,-0.16063273,0.07822885,0.09298997,0.11481077,0.83373731,0.50934929,0.53076726,0.10079345,0.22863629,0, 00:00:17.9
181,0.15197095,0.10187376,0.21014944,0.29338023,0.19294919,0.22628924,0.31048465,0.30489299,0.11222351,0.24788693,0.20963556,0.13619344,0.16364104,0.25416780,0.23491418,0.18868540,0.31761730,0.34862372,0.29737741,-0.00411322,0.31881627,0.09933369,0.12207653,0.16646162,0.17655288,0.27671340,0.28272739,0.40736857,0.33335114,0.17630023,0.11351826,0.13720454,-0.00794460,0.06620941,0.12560442,0.10847987,0.30368447,0.42855754,0.35760951,0.27328861,-0.03332449,0.36129963,-0.06519223,-0.15515751,0.07911100,0.09229062,0.11172736,0.82758814,0.50543821,0.52729738,0.10160065,0.22888121,0, 00:00:18.0
182,0.15172188,0.10108478,0.20921391,0.29286808,0.19245738,0.22614209,0.31274176,0.30685887,0.11101793,0.24820612,0.20933565,0.13561426,0.16394617,0.25327811,0.23589720,0.18731545,0.31744820,0.35032395,0.29712439,-0.00427768,0.31890595,0.09880168,0.12277152,0.16693577,0.17690119,0.27512696,0.28117839,0.40724525,0.33240435,0.17706709,0.11691883,0.13758054,-0.00704938,0.06905150,0.12571001,0.10781164,0.30087847,0.42698136,0.35766819,0.27409118,-0.02928842,0.36180863,-0.06385282,-0.14920390,0.08116510,0.09354456,0.11035412,0.82402754,0.50326467,0.52940387,0.10604479,0.23048460,0, 00:00:18.1
183,0.15177806,0.10071710,0.20851175,0.29275003,0.19306840,0.22660244,0.31510493,0.30914888,0.11031491,0.24903157,0.20959496,0.13559650,0.16456015,0.25274199,0.23667952,0.18611459,0.31845036,0.35245985,0.29755828,-0.00358207,0.31788135,0.09846339,0.12311040,0.16752082,0.17789395,0.27437985,0.28003821,0.40841794,0.33232814,0.17891660,0.12115793,0.13898183,-0.00609601,0.07219289,0.12625228,0.10774199,0.29896659,0.42678285,0.35844395,0.27641985,-0.02559713,0.36201686,-0.06333093,-0.14381930,0.08381823,0.09562704,0.11001074,0.82275099,0.50227296,0.53322506,0.10953642,0.23334527,0, 00:00:18.2
184,0.15122378,0.09978480,0.20728692,0.29174936,0.19304858,0.22624946,0.31584933,0.31024620,0.10931655,0.24915902,0.20957322,0.13515118,0.16495499,0.25150982,0.23537724,0.18356331,0.31869692,0.35319927,0.29741257,-0.00349077,0.31236133,0.09694988,0.12303329,0.16769581,0.17795560,0.27260733,0.27862796,0.40854648,0.33208340,0.18097743,0.12575750,0.14035265,-0.00567164,0.07517399,0.12629102,0.10644824,0.29672512,0.42620182,0.35898232,0.27784306,-0.02434761,0.36036062,-0.06356153,-0.13861328,0.08622570,0.09724543,0.10966688,0.82114553,0.50105065,0.53631848,0.10914999,0.23476696,0, 00:00:18.3
185,0.14913294,0.09779493,0.20485535,0.28923038,0.19051529,0.22384793,0.31382793,0.30909985,0.10718052,0.24735855,0.20841886,0.13313578,0.16456078,0.24883284,0.23236400,0.17889795,0.31606835,0.35129195,0.29541531,-0.00568028,0.30204692,0.09391818,0.12221244,0.16690901,0.17554742,0.26873285,0.27520064,0.40522039,0.33066890,0.18173926,0.12965678,0.14041409,-0.00671654,0.07754987,0.12518740,0.10217905,0.29280248,0.42345652,0.35781705,0.27620229,-0.02665363,0.35312334,-0.06515766,-0.13445832,0.08793198,0.09722676,0.10814014,0.81872714,0.49805683,0.53548169,0.10409988,0.23042136,0, 00:00:18.4
186,0.14669846,0.09576812,0.20237744,0.28599754,0.18738334,0.22055262,0.31085292,0.30727851,0.10444499,0.24438508,0.20645599,0.13061337,0.16369683,0.24582833,0.22872549,0.17344192,0.31202775,0.34859461,0.29252410,-0.00980933,0.28917351,0.09052975,0.12073126,0.16538860,0.17240930,0.26415977,0.27112985,0.40087026,0.32932964,0.18172391,0.13274282,0.14016131,-0.00768761,0.07940724,0.12360766,0.09733009,0.28831449,0.42003593,0.35597545,0.27347836,-0.02993915,0.34646729,-0.06695541,-0.13169453,0.08919739,0.09652428,0.10629221,0.81592685,0.49375945,0.53325707,0.09692388,0.22488746,0, 00:00:18.5
187,0.14386863,0.09372658,0.19963808,0.28249347,0.18388319,0.21662912,0.30692855,0.30494615,0.10161703,0.24076073,0.20410998,0.12791161,0.16268829,0.24250677,0.22469254,0.16744566,0.30762082,0.34516320,0.28919595,-0.01415290,0.27475420,0.08673643,0.11916384,0.16349496,0.16862971,0.25883794,0.26650849,0.39629450,0.32799366,0.18131880,0.13455489,0.13998422,-0.00830472,0.08101845,0.12163061,0.09211949,0.28404367,0.41633081,0.35383675,0.26914600,-0.03382944,0.34106201,-0.06811514,-0.12974198,0.09017141,0.09531494,0.10416607,0.81273943,0.48857445,0.52891278,0.08667331,0.21915518,0, 00:00:18.6
188,0.14188574,0.09225195,0.19746493,0.27939132,0.18074374,0.21328042,0.30469304,0.30420685,0.09884538,0.23778547,0.20231161,0.12603760,0.16205092,0.23975381,0.22163843,0.16151451,0.30349523,0.34313485,0.28659257,-0.01897317,0.26249519,0.08338154,0.11820103,0.16183113,0.16560727,0.25452161,0.26245433,0.39204767,0.32723063,0.18122365,0.13780473,0.14005736,-0.00863742,0.08306899,0.11989305,0.08759670,0.27964911,0.41256040,0.35175088,0.26682743,-0.03810584,0.33697221,-0.06839457,-0.12766849,0.09159431,0.09448078,0.10197362,0.80906993,0.48313561,0.52665538,0.07895052,0.21351290,0, 00:00:18.7
189,0.14099446,0.09184440,0.19658872,0.27705595,0.17917076,0.21175981,0.30453801,0.30552751,0.09693278,0.23598358,0.20124818,0.12560543,0.16199207,0.23846199,0.21901070,0.15781890,0.30215025,0.34340867,0.28549743,-0.02386971,0.25251877,0.08143416,0.11816702,0.16093263,0.16467825,0.25152656,0.26030695,0.39081261,0.32789847,0.18226814,0.14332184,0.14118874,-0.00852765,0.08574484,0.11929601,0.08561734,0.27710143,0.41088408,0.35114443,0.26771465,-0.04259840,0.33421636,-0.06798457,-0.12454845,0.09338450,0.09530842,0.10094629,0.80523813,0.47895226,0.52875441,0.07504649,0.20777898,0, 00:00:18.8
190,0.13976902,0.09143972,0.19549444,0.27511835,0.17819895,0.21025422,0.30363601,0.30652332,0.09551641,0.23401763,0.20020865,0.12504914,0.16192971,0.23706998,0.21532103,0.15419614,0.30095696,0.34326980,0.28461686,-0.02817896,0.24007021,0.07945505,0.11820778,0.15990581,0.16366461,0.24876177,0.25800216,0.39027122,0.32901576,0.18315025,0.14789476,0.14278911,-0.00886082,0.08851367,0.11864730,0.08359490,0.27538809,0.40968996,0.35104981,0.26746652,-0.04718059,0.33167067,-0.06760837,-0.12138133,0.09484846,0.09614743,0.10010524,0.79892623,0.47491169,0.52927130,0.06828502,0.20145093,0, 00:00:18.9
