Header
File Version,1.24
Patient Information
ID,10052
Name,
Comment,VFT,,
Birth Date,0000/00/00
Age, 64y
Sex,Male
Analyze Information
AnalyzeMode,Integral
Pre Time[s],10.0
Post Time[s],5.0
Recovery Time[s],50.0
Base Time[s],5
Fitting Degree,1
HPF[Hz],No Filter
LPF[Hz],No Filter
Moving Average[s],5.0
Measure Information
Date,2015/08/14 12:25
Probe Type,adult
Mode,3x11
Wave[nm],695,830
Wave Length,CH1(703.0),CH1(827.2),CH2(703.0),CH2(826.5),CH3(703.0),CH3(826.5),CH4(703.0),CH4(827.2),CH5(703.0),CH5(827.2),CH6(703.0),CH6(827.2),CH7(703.0),CH7(827.2),CH8(703.7),CH8(827.2),CH9(703.7),CH9(827.2),CH10(704.5),CH10(827.9),CH11(703.0),CH11(827.2),CH12(703.7),CH12(827.2),CH13(703.0),CH13(826.5),CH14(703.7),CH14(827.2),CH15(703.0),CH15(827.2),CH16(703.0),CH16(827.9),CH17(703.0),CH17(827.2),CH18(704.5),CH18(826.5),CH19(703.7),CH19(827.2),CH20(704.5),CH20(826.5),CH21(704.5),CH21(827.9),CH22(703.7),CH22(827.2),CH23(703.7),CH23(827.2),CH24(703.7),CH24(827.2),CH25(703.7),CH25(827.2),CH26(703.0),CH26(827.9),CH27(703.0),CH27(827.9),CH28(704.5),CH28(826.5),CH29(704.5),CH29(826.5),CH30(704.5),CH30(826.5),CH31(704.5),CH31(826.5),CH32(703.7),CH32(826.5),CH33(703.7),CH33(827.2),CH34(704.5),CH34(826.5),CH35(703.7),CH35(827.2),CH36(703.0),CH36(826.5),CH37(703.0),CH37(827.9),CH38(704.5),CH38(826.5),CH39(704.5),CH39(826.5),CH40(703.7),CH40(827.2),CH41(704.5),CH41(826.5),CH42(704.5),CH42(825.7),CH43(703.7),CH43(826.5),CH44(704.5),CH44(826.5),CH45(704.5),CH45(826.5),CH46(703.0),CH46(826.5),CH47(703.0),CH47(826.5),CH48(704.5),CH48(826.5),CH49(704.5),CH49(826.5),CH50(703.7),CH50(827.2),CH51(703.7),CH51(827.2),CH52(704.5),CH52(825.7)
Analog Gain,14.43137300,14.43137300,14.43137300,14.43137300,8.54902000,8.54902000,8.54902000,8.54902000,3.45098000,3.45098000,3.45098000,3.45098000,1.25490200,1.25490200,1.25490200,1.25490200,6.58823500,6.58823500,6.58823500,6.58823500,9.09803900,9.09803900,14.43137300,14.43137300,1.25490200,1.25490200,8.54902000,8.54902000,1.25490200,1.25490200,3.45098000,3.45098000,1.25490200,1.25490200,1.25490200,1.25490200,1.25490200,1.25490200,6.58823500,6.58823500,6.58823500,6.58823500,9.09803900,9.09803900,1.25490200,1.25490200,1.25490200,1.25490200,1.25490200,1.25490200,1.25490200,1.25490200,1.25490200,1.25490200,1.25490200,1.25490200,1.25490200,1.25490200,1.25490200,1.25490200,6.58823500,6.58823500,9.09803900,9.09803900,5.25490200,5.25490200,1.25490200,1.25490200,1.25490200,1.25490200,1.25490200,1.25490200,1.25490200,1.25490200,1.25490200,1.25490200,1.25490200,1.25490200,1.25490200,1.25490200,3.92156900,3.92156900,6.58823500,6.58823500,5.25490200,5.25490200,5.25490200,5.25490200,1.25490200,1.25490200,1.25490200,1.25490200,1.25490200,1.25490200,1.25490200,1.25490200,1.25490200,1.25490200,1.25490200,1.25490200,3.92156900,3.92156900,3.92156900,3.92156900
Digital Gain,11.84000000,2.48000000,16.82000000,3.27000000,26.93000000,5.85000000,11.21000000,2.55000000,7.94000000,2.05000000,26.54000000,5.69000000,23.59000000,6.81000000,7.64000000,2.43000000,14.88000000,3.07000000,20.19000000,4.10000000,18.83000000,3.61000000,50.83000000,8.42000000,10.63000000,3.60000000,15.46000000,3.46000000,9.27000000,3.72000000,27.23000000,7.15000000,23.46000000,7.27000000,14.41000000,4.89000000,60.59000000,15.45000000,12.42000000,3.53000000,27.95000000,6.02000000,10.23000000,2.07000000,99.34000000,22.30000000,25.46000000,8.19000000,23.22000000,7.71000000,10.24000000,3.55000000,6.83000000,2.63000000,7.70000000,2.77000000,11.70000000,3.91000000,73.80000000,22.07000000,15.46000000,4.55000000,105.12000000,15.95000000,8.51000000,1.98000000,37.70000000,12.99000000,33.37000000,12.18000000,9.25000000,3.62000000,9.89000000,3.73000000,5.63000000,2.92000000,30.81000000,10.89000000,51.38000000,18.54000000,13.36000000,3.88000000,8.18000000,1.89000000,33.26000000,7.84000000,18.02000000,6.17000000,12.15000000,6.46000000,13.75000000,5.84000000,3.50000000,1.64000000,3.45000000,1.75000000,4.01000000,2.54000000,20.71000000,9.64000000,13.45000000,4.25000000,12.00000000,3.19000000
Sampling Period[s],0.1
StimType,STIM(VFT)
Stim Time[s]
A,60,B,15,C,15,D,15,E,15,F,15,G,15,H,15,I,15,J,15
Repeat Count,1
Exception Ch,0,0,0,0,0,0,0,0,0,0,0,0,0,0,0,0,0,0,0,0,0,0,0,0,0,0,0,0,0,0,0,0,0,0,0,0,0,0,0,0,0,0,0,0,0,0,0,0,0,0,0,0






Data
Probe1(Deoxy),CH1,CH2,CH3,CH4,CH5,CH6,CH7,CH8,CH9,CH10,CH11,CH12,CH13,CH14,CH15,CH16,CH17,CH18,CH19,CH20,CH21,CH22,CH23,CH24,CH25,CH26,CH27,CH28,CH29,CH30,CH31,CH32,CH33,CH34,CH35,CH36,CH37,CH38,CH39,CH40,CH41,CH42,CH43,CH44,CH45,CH46,CH47,CH48,CH49,CH50,CH51,CH52,Mark,Time,BodyMovement,RemovalMark,PreScan
1,-0.06769647,-0.05017716,0.01741663,-0.02153103,-0.06774253,-0.01568444,0.01591126,0.06039719,-0.00825311,0.11695815,-0.01981165,0.06709756,0.02978390,0.00139608,-0.04992238,0.01069004,0.03980839,-0.04766548,0.00829650,0.00768224,0.13226046,0.12056381,0.13786925,-0.01156645,0.00897006,0.01036560,0.00792747,-0.00227771,-0.00997067,-0.00125773,-0.02450052,0.02460027,0.13009119,-0.01936848,-0.03245464,-0.04093763,-0.02493719,-0.02307464,-0.01365782,-0.00609658,0.00310026,-0.02567018,0.04002647,-0.02737112,-0.01538899,-0.02235508,0.00318444,-0.01501672,-0.00087142,-0.00702321,-0.00681968,-0.05126331,0, 00:00:00.0
2,-0.06651664,-0.04899546,0.01682096,-0.02146184,-0.06691027,-0.01508827,0.01616806,0.05786058,-0.00903021,0.11373931,-0.01956508,0.06777991,0.02973936,0.00171053,-0.04930975,0.01062560,0.03962738,-0.04589433,0.00671366,0.00722306,0.12822963,0.12057735,0.13807374,-0.01132244,0.00894366,0.00976038,0.00763731,-0.00207514,-0.00945460,-0.00171873,-0.02388662,0.02492859,0.13041377,-0.01875100,-0.03181415,-0.03966693,-0.02458572,-0.02239019,-0.01352829,-0.00597153,0.00281760,-0.02532724,0.03976573,-0.02655847,-0.01487301,-0.02163704,0.00336985,-0.01451981,-0.00064332,-0.00696802,-0.00654826,-0.05006741,0, 00:00:00.1
3,-0.06552645,-0.04769842,0.01640345,-0.02118061,-0.06610726,-0.01452553,0.01637285,0.05549401,-0.00962846,0.11096772,-0.01917575,0.06915209,0.02973549,0.00160677,-0.04864244,0.01019305,0.03952792,-0.04418375,0.00557445,0.00659536,0.12502649,0.12078439,0.13812155,-0.01100020,0.00896023,0.00921622,0.00744714,-0.00187664,-0.00899612,-0.00230076,-0.02345840,0.02463669,0.13078858,-0.01809387,-0.03123172,-0.03840927,-0.02415729,-0.02181173,-0.01342860,-0.00578086,0.00234956,-0.02483521,0.03987484,-0.02607139,-0.01454524,-0.02098858,0.00355200,-0.01405450,-0.00044493,-0.00668467,-0.00630007,-0.04881126,0, 00:00:00.2
4,-0.06453820,-0.04673295,0.01607168,-0.02084398,-0.06524189,-0.01412556,0.01656752,0.05331229,-0.01039457,0.10827218,-0.01904225,0.06985161,0.02958792,0.00176875,-0.04789057,0.00975630,0.03953753,-0.04270304,0.00454593,0.00591962,0.12200530,0.12073824,0.13943903,-0.01059637,0.00895171,0.00857670,0.00719996,-0.00177396,-0.00856566,-0.00262527,-0.02327643,0.02428061,0.13103180,-0.01756157,-0.03095967,-0.03728057,-0.02373884,-0.02119439,-0.01328531,-0.00564797,0.00181637,-0.02455562,0.03992582,-0.02613940,-0.01435023,-0.02039801,0.00368982,-0.01369678,-0.00033193,-0.00643757,-0.00650717,-0.04733420,0, 00:00:00.3
5,-0.06365708,-0.04571627,0.01595535,-0.02054626,-0.06417320,-0.01355756,0.01683412,0.05130659,-0.01066414,0.10558514,-0.01883569,0.06938274,0.02930805,0.00173213,-0.04693593,0.00952872,0.03942329,-0.04132884,0.00355686,0.00540750,0.11912560,0.12083877,0.14057556,-0.01044575,0.00882444,0.00794319,0.00690104,-0.00168092,-0.00819956,-0.00293402,-0.02297851,0.02495142,0.13116851,-0.01683719,-0.03054635,-0.03620419,-0.02334205,-0.02065273,-0.01304638,-0.00553898,0.00115840,-0.02442818,0.03788227,-0.02492347,-0.01389736,-0.01980225,0.00384919,-0.01341799,-0.00029341,-0.00617412,-0.00581884,-0.04458049,0, 00:00:00.5
6,-0.06258936,-0.04497498,0.01542518,-0.02012516,-0.06298476,-0.01252136,0.01741665,0.04959832,-0.01090001,0.10342482,-0.01866467,0.06988181,0.02889003,0.00149251,-0.04588984,0.00895501,0.03960666,-0.03986699,0.00300388,0.00472077,0.11570153,0.12080244,0.14122097,-0.01023167,0.00879873,0.00735426,0.00658929,-0.00149988,-0.00783622,-0.00350975,-0.02234698,0.02400025,0.13119172,-0.01629838,-0.02994359,-0.03506043,-0.02294816,-0.02007348,-0.01257723,-0.00550677,0.00046534,-0.02449136,0.03357960,-0.02205378,-0.01336482,-0.01918365,0.00405435,-0.01318418,-0.00026600,-0.00564306,-0.00401723,-0.04002943,0, 00:00:00.5
7,-0.06166105,-0.04450591,0.01510194,-0.01976862,-0.06181023,-0.01152659,0.01801947,0.04804750,-0.01110010,0.10113842,-0.01821812,0.07122140,0.02843759,0.00138899,-0.04486100,0.00829455,0.04021973,-0.03836778,0.00284846,0.00401163,0.11269166,0.12092283,0.14144269,-0.00983365,0.00881188,0.00688581,0.00640660,-0.00131236,-0.00745738,-0.00408751,-0.02193372,0.02169309,0.13117790,-0.01578924,-0.02947969,-0.03401218,-0.02255080,-0.01943121,-0.01213213,-0.00546760,-0.00012352,-0.02454698,0.02927970,-0.01967234,-0.01291947,-0.01849868,0.00425493,-0.01292011,-0.00018232,-0.00530919,-0.00279655,-0.03563711,0, 00:00:00.6
8,-0.06075119,-0.04380833,0.01463023,-0.01941944,-0.06081158,-0.01087572,0.01842008,0.04655500,-0.01129172,0.09893065,-0.01769828,0.07130766,0.02805165,0.00135571,-0.04379244,0.00763850,0.04084635,-0.03697970,0.00254783,0.00356485,0.11038506,0.12093202,0.14212203,-0.00960212,0.00891591,0.00650305,0.00620288,-0.00114212,-0.00707299,-0.00429372,-0.02139908,0.01945687,0.13122495,-0.01549797,-0.02886776,-0.03297979,-0.02207640,-0.01874884,-0.01162860,-0.00524379,-0.00054454,-0.02439142,0.02586028,-0.01791653,-0.01254704,-0.01793714,0.00445469,-0.01261620,-0.00007502,-0.00482841,-0.00205385,-0.03194004,0, 00:00:00.7
9,-0.05984834,-0.04314671,0.01413407,-0.01914754,-0.05982376,-0.01006521,0.01882418,0.04522150,-0.01150884,0.09682740,-0.01709015,0.07232195,0.02771140,0.00141160,-0.04269628,0.00727850,0.04092632,-0.03562377,0.00231399,0.00309690,0.10834101,0.12074120,0.14264116,-0.00942022,0.00899783,0.00609555,0.00588453,-0.00095873,-0.00668631,-0.00413140,-0.02077997,0.01883051,0.13128966,-0.01517715,-0.02804521,-0.03189010,-0.02167246,-0.01807340,-0.01117874,-0.00512325,-0.00082199,-0.02402977,0.02296017,-0.01650517,-0.01230828,-0.01736841,0.00465208,-0.01231688,0.00007666,-0.00442911,-0.00164637,-0.02889588,0, 00:00:00.8
10,-0.05899291,-0.04274835,0.01325906,-0.01887692,-0.05877624,-0.00943070,0.01947606,0.04381992,-0.01190088,0.09494154,-0.01675548,0.07300492,0.02732754,0.00133384,-0.04152089,0.00703977,0.04097026,-0.03438398,0.00184273,0.00271671,0.10580552,0.12047213,0.14250001,-0.00916379,0.00909933,0.00570758,0.00559207,-0.00080009,-0.00637022,-0.00378408,-0.02038195,0.01834282,0.13110562,-0.01479963,-0.02733342,-0.03080414,-0.02123030,-0.01749085,-0.01073848,-0.00501455,-0.00094078,-0.02363463,0.02114469,-0.01583541,-0.01207440,-0.01694236,0.00486057,-0.01207492,0.00021855,-0.00411470,-0.00132599,-0.02646885,0, 00:00:01.0
11,-0.05802450,-0.04244424,0.01222589,-0.01827618,-0.05751260,-0.00905384,0.02014601,0.04242934,-0.01226489,0.09277888,-0.01659267,0.07406935,0.02686234,0.00128175,-0.04017553,0.00658527,0.04098573,-0.03321183,0.00162240,0.00230551,0.10354427,0.12022501,0.14157212,-0.00902435,0.00922798,0.00529500,0.00524564,-0.00066440,-0.00609180,-0.00377704,-0.02007855,0.01767210,0.13093644,-0.01425006,-0.02683279,-0.02972715,-0.02085334,-0.01692279,-0.01030968,-0.00474463,-0.00088265,-0.02322190,0.01974068,-0.01534793,-0.01191577,-0.01658083,0.00499837,-0.01190794,0.00025996,-0.00382338,-0.00138396,-0.02439573,0, 00:00:01.0
12,-0.05693993,-0.04211271,0.01095485,-0.01765181,-0.05602290,-0.00877636,0.02037741,0.04107703,-0.01225886,0.09053498,-0.01631736,0.07511954,0.02631966,0.00143141,-0.03860621,0.00606356,0.04083138,-0.03192005,0.00138001,0.00189978,0.10072133,0.12002370,0.14161430,-0.00893024,0.00930320,0.00493119,0.00492510,-0.00053659,-0.00571330,-0.00380488,-0.01964024,0.01691696,0.13101423,-0.01378229,-0.02626288,-0.02866261,-0.02040927,-0.01631047,-0.00987170,-0.00453801,-0.00099228,-0.02261724,0.01825410,-0.01442594,-0.01173488,-0.01609079,0.00506049,-0.01182900,0.00031103,-0.00351015,-0.00124570,-0.02216434,0, 00:00:01.1
13,-0.05599304,-0.04187161,0.00985740,-0.01684500,-0.05429872,-0.00859047,0.02022029,0.03980501,-0.01216055,0.08822422,-0.01623495,0.07597569,0.02565268,0.00136540,-0.03685290,0.00548894,0.04038644,-0.03060047,0.00118947,0.00135250,0.09763660,0.11973155,0.14138442,-0.00871151,0.00932876,0.00456200,0.00462542,-0.00040258,-0.00533807,-0.00388187,-0.01940293,0.01687353,0.13115972,-0.01346362,-0.02553054,-0.02764810,-0.01985454,-0.01562255,-0.00940958,-0.00439820,-0.00114241,-0.02208173,0.01627862,-0.01340064,-0.01144898,-0.01559311,0.00515520,-0.01170446,0.00037847,-0.00321793,-0.00089350,-0.01961036,0, 00:00:01.2
14,-0.05498267,-0.04166239,0.00909361,-0.01584124,-0.05242559,-0.00835976,0.02009739,0.03857017,-0.01182641,0.08601343,-0.01592545,0.07738511,0.02475267,0.00133912,-0.03492869,0.00503579,0.03986415,-0.02927792,0.00117804,0.00082968,0.09479090,0.11962333,0.14127187,-0.00845660,0.00932907,0.00419016,0.00437073,-0.00026052,-0.00500545,-0.00391636,-0.01911034,0.01640208,0.13121143,-0.01317716,-0.02475883,-0.02669000,-0.01925197,-0.01493581,-0.00904019,-0.00429640,-0.00135136,-0.02146086,0.01436667,-0.01215112,-0.01117878,-0.01512958,0.00529166,-0.01146362,0.00048291,-0.00297180,-0.00069942,-0.01709931,0, 00:00:01.3
15,-0.05400315,-0.04173162,0.00796523,-0.01482416,-0.05063527,-0.00829363,0.01987906,0.03741346,-0.01173490,0.08418386,-0.01542198,0.07790015,0.02387227,0.00146661,-0.03303421,0.00475803,0.03939976,-0.02805591,0.00113054,0.00036808,0.09218810,0.11940005,0.14194900,-0.00814443,0.00943357,0.00389456,0.00417221,-0.00007317,-0.00468406,-0.00417950,-0.01882576,0.01488009,0.13129742,-0.01279889,-0.02404185,-0.02571552,-0.01873458,-0.01421606,-0.00873994,-0.00414210,-0.00176919,-0.02086630,0.01307446,-0.01100185,-0.01097365,-0.01460720,0.00543470,-0.01113972,0.00063285,-0.00270399,-0.00049238,-0.01484398,0, 00:00:01.5
16,-0.05318702,-0.04158381,0.00705203,-0.01377240,-0.04888576,-0.00854031,0.01976463,0.03625382,-0.01167330,0.08222187,-0.01515534,0.07868180,0.02313418,0.00156231,-0.03115063,0.00438366,0.03883155,-0.02690213,0.00092650,-0.00003443,0.08963688,0.11906216,0.14210002,-0.00788655,0.00953441,0.00360325,0.00398066,0.00006231,-0.00435315,-0.00443864,-0.01840699,0.01444776,0.13142869,-0.01247132,-0.02348779,-0.02480322,-0.01820321,-0.01354847,-0.00834768,-0.00387480,-0.00191652,-0.02025075,0.01183925,-0.01029316,-0.01082892,-0.01421325,0.00559737,-0.01085061,0.00080382,-0.00250264,-0.00028872,-0.01281676,0, 00:00:01.5
17,-0.05242992,-0.04150202,0.00638088,-0.01285384,-0.04718716,-0.00863601,0.01965396,0.03494064,-0.01186834,0.08049851,-0.01513881,0.07921147,0.02245742,0.00163032,-0.02935927,0.00404062,0.03823504,-0.02591146,0.00068390,-0.00044309,0.08736743,0.11884315,0.14233139,-0.00774644,0.00944820,0.00328122,0.00372040,0.00015257,-0.00411963,-0.00448482,-0.01822132,0.01431757,0.13136590,-0.01212868,-0.02323826,-0.02398358,-0.01770516,-0.01295213,-0.00792918,-0.00372684,-0.00209480,-0.01977225,0.01096636,-0.00987814,-0.01076629,-0.01392662,0.00571460,-0.01059008,0.00093197,-0.00245202,-0.00038832,-0.01092025,0, 00:00:01.6
18,-0.05179975,-0.04154066,0.00560408,-0.01178377,-0.04545701,-0.00875602,0.01941388,0.03367973,-0.01201927,0.07878409,-0.01497856,0.08017816,0.02166723,0.00167249,-0.02749984,0.00377502,0.03737830,-0.02485291,0.00053686,-0.00094973,0.08455274,0.11864258,0.14266561,-0.00767405,0.00932341,0.00295818,0.00342757,0.00030323,-0.00386212,-0.00444186,-0.01800917,0.01380487,0.13129479,-0.01187348,-0.02295458,-0.02317173,-0.01725655,-0.01240777,-0.00751879,-0.00349830,-0.00220834,-0.01924624,0.01045292,-0.00959808,-0.01065263,-0.01360304,0.00578343,-0.01044051,0.00099940,-0.00231466,-0.00078592,-0.00925665,0, 00:00:01.7
19,-0.05109321,-0.04173470,0.00488546,-0.01079213,-0.04368875,-0.00888052,0.01916788,0.03251830,-0.01203911,0.07701466,-0.01489365,0.08142335,0.02075608,0.00147885,-0.02567105,0.00342816,0.03654950,-0.02373603,0.00034535,-0.00147694,0.08272130,0.11837209,0.14292189,-0.00753340,0.00923604,0.00265743,0.00322381,0.00043147,-0.00356244,-0.00454803,-0.01778733,0.01327858,0.13127398,-0.01170091,-0.02257218,-0.02230644,-0.01687744,-0.01183974,-0.00717453,-0.00347069,-0.00227381,-0.01853289,0.01040851,-0.00956091,-0.01053245,-0.01322608,0.00583462,-0.01032692,0.00103146,-0.00219429,-0.00138588,-0.00824021,0, 00:00:01.8
20,-0.05029142,-0.04187201,0.00373804,-0.00983537,-0.04195570,-0.00891597,0.01885483,0.03137031,-0.01174092,0.07526250,-0.01476072,0.08250912,0.01973923,0.00157785,-0.02407526,0.00314738,0.03568756,-0.02275313,-0.00004917,-0.00180197,0.08104176,0.11805781,0.14221103,-0.00741602,0.00920647,0.00241980,0.00306597,0.00058433,-0.00326349,-0.00461526,-0.01765090,0.01274917,0.13125291,-0.01166817,-0.02228535,-0.02148820,-0.01643130,-0.01121706,-0.00687608,-0.00353739,-0.00241657,-0.01776463,0.01064052,-0.00967218,-0.01042034,-0.01286334,0.00590578,-0.01014077,0.00110084,-0.00209048,-0.00215939,-0.00795326,0, 00:00:02.0
21,-0.04936119,-0.04192214,0.00238357,-0.00866231,-0.03990815,-0.00885214,0.01861916,0.03011755,-0.01110664,0.07366230,-0.01438208,0.08285401,0.01857719,0.00135242,-0.02244206,0.00275221,0.03498412,-0.02177706,-0.00058482,-0.00197809,0.07916546,0.11751793,0.14147313,-0.00747854,0.00920734,0.00218275,0.00287814,0.00069909,-0.00292598,-0.00463301,-0.01743986,0.01223380,0.13087267,-0.01132512,-0.02196437,-0.02069650,-0.01597784,-0.01066927,-0.00662141,-0.00334901,-0.00261198,-0.01706648,0.01082132,-0.00988534,-0.01034828,-0.01245336,0.00599676,-0.00989967,0.00115472,-0.00205937,-0.00303709,-0.00795881,0, 00:00:02.0
22,-0.04812977,-0.04172266,0.00113294,-0.00723851,-0.03762414,-0.00874718,0.01858114,0.02883479,-0.01036519,0.07196047,-0.01372090,0.08255327,0.01732821,0.00113037,-0.02083528,0.00255211,0.03453685,-0.02084650,-0.00102341,-0.00222630,0.07728848,0.11613102,0.13976914,-0.00744929,0.00920432,0.00201606,0.00265982,0.00085163,-0.00260704,-0.00477308,-0.01725761,0.01184578,0.12966000,-0.01094890,-0.02124594,-0.01989097,-0.01556402,-0.01016815,-0.00642315,-0.00314355,-0.00284968,-0.01627683,0.01103294,-0.01004190,-0.01017196,-0.01179356,0.00608734,-0.00963584,0.00121558,-0.00197892,-0.00369259,-0.00808483,0, 00:00:02.1
23,-0.04686362,-0.04138073,-0.00028929,-0.00555949,-0.03515402,-0.00850771,0.01851898,0.02750033,-0.00976142,0.07023557,-0.01318784,0.08094809,0.01607245,0.00113096,-0.01910896,0.00257441,0.03400223,-0.01999642,-0.00168345,-0.00244915,0.07561373,0.11415656,0.13676076,-0.00735759,0.00915931,0.00189225,0.00248422,0.00099248,-0.00236651,-0.00506432,-0.01716917,0.01141108,0.12743758,-0.01057555,-0.02048826,-0.01915661,-0.01517491,-0.00976114,-0.00628085,-0.00312580,-0.00304184,-0.01549900,0.01115044,-0.01009045,-0.00981780,-0.01090868,0.00617105,-0.00931547,0.00130412,-0.00195417,-0.00435699,-0.00822762,0, 00:00:02.2
24,-0.04560773,-0.04104660,-0.00133044,-0.00394630,-0.03281779,-0.00831878,0.01834795,0.02617258,-0.00929636,0.06829499,-0.01276230,0.07971438,0.01483308,0.00133476,-0.01752402,0.00242931,0.03337360,-0.01923126,-0.00222365,-0.00271349,0.07375079,0.11178251,0.13390173,-0.00737272,0.00897786,0.00179388,0.00231036,0.00111601,-0.00218680,-0.00544303,-0.01708359,0.01096368,0.12488417,-0.00994594,-0.01966800,-0.01842722,-0.01476331,-0.00942437,-0.00605315,-0.00313913,-0.00334321,-0.01480624,0.01086124,-0.00998058,-0.00935575,-0.00991132,0.00622881,-0.00903059,0.00136041,-0.00199137,-0.00504044,-0.00827301,0, 00:00:02.3
25,-0.04418182,-0.04059326,-0.00189789,-0.00260986,-0.03059126,-0.00816119,0.01821163,0.02495333,-0.00888250,0.06635596,-0.01233859,0.07739598,0.01370557,0.00139633,-0.01595479,0.00227042,0.03274369,-0.01845497,-0.00257735,-0.00300385,0.07212768,0.10928907,0.13086769,-0.00739816,0.00878739,0.00165612,0.00214678,0.00125827,-0.00203167,-0.00571591,-0.01700822,0.00993861,0.12208332,-0.00963180,-0.01875991,-0.01775345,-0.01438945,-0.00902151,-0.00571349,-0.00313400,-0.00364218,-0.01421455,0.01054296,-0.00967844,-0.00880327,-0.00892360,0.00627212,-0.00879403,0.00141123,-0.00193389,-0.00554184,-0.00819212,0, 00:00:02.5
26,-0.04281177,-0.04016619,-0.00277356,-0.00141623,-0.02837597,-0.00775693,0.01820602,0.02382055,-0.00840373,0.06468672,-0.01171919,0.07505246,0.01259954,0.00134756,-0.01443063,0.00216449,0.03219913,-0.01764084,-0.00297059,-0.00331305,0.07047573,0.10661148,0.12736553,-0.00741281,0.00865069,0.00151753,0.00206072,0.00140191,-0.00185719,-0.00597329,-0.01702574,0.01031947,0.11920711,-0.00929242,-0.01806816,-0.01705490,-0.01396087,-0.00859659,-0.00536446,-0.00323291,-0.00391776,-0.01358198,0.01019918,-0.00944985,-0.00823264,-0.00799323,0.00630888,-0.00852413,0.00147687,-0.00192742,-0.00591085,-0.00809682,0, 00:00:02.5
27,-0.04038918,-0.03817186,-0.00386832,0.00125776,-0.02349262,-0.00711690,0.01729446,0.01932142,-0.00804870,0.06049107,-0.01077191,0.07401326,0.01111778,0.00143391,-0.01078978,0.00166566,0.03080614,-0.01369917,-0.00473561,-0.00469927,0.06521028,0.10352883,0.12373050,-0.00733150,0.00828455,0.00114500,0.00166798,0.00158091,-0.00109976,-0.00739427,-0.01668503,0.00910548,0.11656765,-0.00808315,-0.01663022,-0.01484990,-0.01247407,-0.00757729,-0.00413590,-0.00271793,-0.00540661,-0.01231235,0.00929262,-0.00846666,-0.00741726,-0.00650669,0.00645309,-0.00814442,0.00116805,-0.00172471,-0.00680565,-0.00496693,0, 00:00:02.6
28,-0.03798768,-0.03616631,-0.00480650,0.00415926,-0.01870969,-0.00603214,0.01676165,0.01518533,-0.00723051,0.05609058,-0.00974031,0.07232190,0.00961106,0.00149120,-0.00733860,0.00109403,0.02950321,-0.00974286,-0.00638537,-0.00594481,0.05987035,0.09983221,0.11931687,-0.00709697,0.00797682,0.00065460,0.00137599,0.00178039,-0.00021175,-0.00871459,-0.01596235,0.00885662,0.11327104,-0.00720934,-0.01521468,-0.01261517,-0.01099266,-0.00643637,-0.00315345,-0.00230027,-0.00690296,-0.01098984,0.00833287,-0.00718802,-0.00667081,-0.00505852,0.00662704,-0.00763945,0.00099679,-0.00147504,-0.00754397,-0.00198437,0, 00:00:02.7
29,-0.03549298,-0.03374214,-0.00541537,0.00675076,-0.01413651,-0.00525907,0.01613607,0.01215829,-0.00593038,0.05126522,-0.00831897,0.07029020,0.00829058,0.00156286,-0.00435362,0.00069996,0.02823436,-0.00621164,-0.00730882,-0.00733233,0.05471138,0.09556435,0.11437639,-0.00672787,0.00785207,0.00014871,0.00113846,0.00198612,0.00063953,-0.00991605,-0.01531499,0.00808894,0.10913485,-0.00634552,-0.01380438,-0.01051444,-0.00962169,-0.00529174,-0.00247908,-0.00240214,-0.00831216,-0.00981687,0.00723976,-0.00608894,-0.00610660,-0.00372924,0.00686626,-0.00695222,0.00096013,-0.00124966,-0.00822799,0.00081548,0, 00:00:02.8
30,-0.03275723,-0.03101354,-0.00578639,0.00861748,-0.00987985,-0.00442782,0.01553916,0.01035282,-0.00435371,0.04540645,-0.00666005,0.06745076,0.00724098,0.00149644,-0.00215913,0.00013576,0.02689699,-0.00332875,-0.00788363,-0.00882418,0.04852291,0.09070744,0.10886209,-0.00652595,0.00759862,-0.00035269,0.00093999,0.00222696,0.00135218,-0.01096799,-0.01488175,0.00669233,0.10421743,-0.00552050,-0.01243117,-0.00853475,-0.00843751,-0.00422789,-0.00181771,-0.00215187,-0.00970096,-0.00872855,0.00628605,-0.00504193,-0.00559907,-0.00251653,0.00714166,-0.00626107,0.00094674,-0.00116242,-0.00887518,0.00346917,0, 00:00:03.0
31,-0.03005969,-0.02833599,-0.00607523,0.00973443,-0.00658387,-0.00270217,0.01591596,0.00926941,-0.00255249,0.03887499,-0.00506605,0.06345637,0.00635453,0.00142355,-0.00101192,-0.00046692,0.02639859,-0.00099418,-0.00822685,-0.01014418,0.04145968,0.08529632,0.10321276,-0.00626907,0.00717497,-0.00089747,0.00068986,0.00242722,0.00199769,-0.01174919,-0.01452009,0.00441456,0.09864246,-0.00449249,-0.01112910,-0.00672193,-0.00760135,-0.00329382,-0.00109515,-0.00173782,-0.01069295,-0.00768655,0.00469339,-0.00416820,-0.00508609,-0.00135733,0.00737812,-0.00566708,0.00091490,-0.00103180,-0.00941239,0.00578844,0, 00:00:03.0
32,-0.02705422,-0.02593401,-0.00671758,0.01065330,-0.00357343,0.00020734,0.01789519,0.00854720,-0.00077173,0.03228466,-0.00368443,0.05930743,0.00528195,0.00109312,-0.00008381,-0.00096262,0.02734818,0.00093787,-0.00806906,-0.01128865,0.03499587,0.07951463,0.09671710,-0.00603198,0.00684645,-0.00146867,0.00038803,0.00268974,0.00255958,-0.01231318,-0.01434286,0.00384325,0.09281633,-0.00347833,-0.01011659,-0.00503007,-0.00704086,-0.00241310,-0.00051773,-0.00137224,-0.01126816,-0.00662585,0.00341181,-0.00323188,-0.00459632,-0.00020420,0.00757366,-0.00517309,0.00092718,-0.00084086,-0.00974114,0.00743793,0, 00:00:03.1
33,-0.02426980,-0.02369432,-0.00737890,0.01150953,-0.00051115,0.00324443,0.01980323,0.00746332,0.00027470,0.02596731,-0.00253994,0.05658548,0.00449358,0.00102733,0.00107529,-0.00150989,0.02814597,0.00257718,-0.00833741,-0.01232604,0.02802866,0.07353316,0.09011330,-0.00590455,0.00654976,-0.00201706,0.00014920,0.00294993,0.00301918,-0.01296408,-0.01407297,0.00285032,0.08696522,-0.00269648,-0.00925238,-0.00333917,-0.00633356,-0.00156185,0.00001291,-0.00123454,-0.01166247,-0.00563788,0.00232613,-0.00237048,-0.00396237,0.00087399,0.00766174,-0.00470026,0.00097564,-0.00082441,-0.00994258,0.00844529,0, 00:00:03.2
34,-0.02183055,-0.02169260,-0.00789934,0.01283180,0.00244136,0.00572858,0.02147667,0.00542344,0.00064126,0.02024991,-0.00174715,0.05319389,0.00388397,0.00094149,0.00266403,-0.00216676,0.02902928,0.00428824,-0.00888272,-0.01323519,0.02150204,0.06855055,0.08391362,-0.00569401,0.00615396,-0.00250152,-0.00004263,0.00320036,0.00343150,-0.01328122,-0.01382685,0.00233320,0.08190490,-0.00217954,-0.00833545,-0.00175636,-0.00557599,-0.00071222,0.00042592,-0.00117535,-0.01210511,-0.00471462,0.00135590,-0.00152216,-0.00328700,0.00188631,0.00774315,-0.00414325,0.00110571,-0.00081914,-0.00981419,0.00949425,0, 00:00:03.3
35,-0.01943539,-0.01969298,-0.00807496,0.01466234,0.00553455,0.00687169,0.02198197,0.00308927,0.00051676,0.01527101,-0.00101865,0.05028868,0.00350017,0.00099227,0.00487571,-0.00215952,0.02891346,0.00604570,-0.00943307,-0.01383832,0.01612497,0.06423309,0.07859147,-0.00529159,0.00579722,-0.00291827,-0.00029046,0.00343963,0.00389828,-0.01377486,-0.01357961,0.00324294,0.07729203,-0.00186385,-0.00716768,-0.00037516,-0.00483976,0.00016259,0.00079182,-0.00121805,-0.01271461,-0.00380580,0.00076096,-0.00072215,-0.00265518,0.00288776,0.00783096,-0.00347608,0.00130745,-0.00082895,-0.00969350,0.01025220,0, 00:00:03.5
36,-0.01714971,-0.01759044,-0.00820368,0.01642652,0.00865281,0.00709286,0.02152941,0.00128204,0.00081195,0.01123968,-0.00057560,0.04782472,0.00307336,0.00111748,0.00710872,-0.00227619,0.02732005,0.00738254,-0.00980822,-0.01417858,0.01141453,0.05993172,0.07306949,-0.00491879,0.00557454,-0.00335780,-0.00057295,0.00365978,0.00425268,-0.01364051,-0.01329121,0.00299301,0.07234667,-0.00148605,-0.00621195,0.00085925,-0.00421631,0.00093936,0.00112404,-0.00105002,-0.01307265,-0.00310498,0.00017593,-0.00021763,-0.00223522,0.00369131,0.00792157,-0.00275529,0.00153541,-0.00081126,-0.00970521,0.01077269,0, 00:00:03.5
37,-0.01494544,-0.01588081,-0.00877861,0.01813051,0.01188019,0.00686790,0.02069934,0.00000740,0.00158451,0.00739189,0.00005602,0.04506913,0.00226930,0.00102558,0.00921476,-0.00270831,0.02528987,0.00823612,-0.01016191,-0.01441510,0.00756297,0.05531458,0.06779519,-0.00459714,0.00542227,-0.00372931,-0.00090554,0.00384090,0.00448261,-0.01346195,-0.01306374,0.00187279,0.06739573,-0.00084152,-0.00541799,0.00182760,-0.00372671,0.00152067,0.00138979,-0.00101382,-0.01311959,-0.00229529,-0.00088456,0.00033022,-0.00185897,0.00440510,0.00795305,-0.00215665,0.00174052,-0.00084024,-0.01009688,0.01117098,0, 00:00:03.6
38,-0.01264286,-0.01432191,-0.00905155,0.01986123,0.01493909,0.00615040,0.01956715,-0.00101320,0.00232770,0.00402941,0.00052321,0.04314059,0.00157109,0.00085105,0.01106865,-0.00302999,0.02305157,0.00898545,-0.01021303,-0.01466805,0.00352170,0.05086727,0.06223311,-0.00429218,0.00499027,-0.00398887,-0.00116535,0.00405843,0.00461465,-0.01335546,-0.01275390,0.00108457,0.06244997,-0.00029544,-0.00470244,0.00273520,-0.00332620,0.00201006,0.00159215,-0.00103306,-0.01316509,-0.00164122,-0.00170817,0.00076753,-0.00138314,0.00519585,0.00790827,-0.00172469,0.00187916,-0.00079318,-0.01057714,0.01146906,0, 00:00:03.7
39,-0.01040984,-0.01239794,-0.00885894,0.02175895,0.01767461,0.00548869,0.01824090,-0.00199998,0.00277369,0.00063664,0.00115602,0.04114016,0.00115116,0.00090810,0.01303663,-0.00347691,0.02092081,0.00966177,-0.00975160,-0.01480648,0.00015757,0.04661021,0.05716470,-0.00393592,0.00452009,-0.00418444,-0.00141416,0.00425872,0.00467065,-0.01309635,-0.01235632,0.00054637,0.05751891,0.00007774,-0.00379087,0.00367776,-0.00294953,0.00254951,0.00189017,-0.00113779,-0.01317405,-0.00106153,-0.00203701,0.00135316,-0.00083360,0.00603244,0.00781081,-0.00133538,0.00198588,-0.00073903,-0.01091887,0.01178124,0, 00:00:03.8
40,-0.00823187,-0.01000558,-0.00865925,0.02355647,0.02034268,0.00524424,0.01725473,-0.00337253,0.00280157,-0.00257642,0.00134381,0.03820258,0.00086895,0.00094001,0.01513673,-0.00390434,0.01935657,0.01041681,-0.01008284,-0.01453790,-0.00317533,0.04251016,0.05196434,-0.00360432,0.00401810,-0.00441789,-0.00169820,0.00440641,0.00475513,-0.01264309,-0.01177762,-0.00082344,0.05296760,0.00046207,-0.00288555,0.00470285,-0.00251081,0.00302634,0.00215621,-0.00118453,-0.01303519,-0.00023726,-0.00291947,0.00198327,-0.00017408,0.00677978,0.00763982,-0.00100746,0.00209016,-0.00067647,-0.01118631,0.01223077,0, 00:00:04.0
41,-0.00598611,-0.00773485,-0.00841107,0.02526111,0.02303606,0.00506456,0.01628781,-0.00460534,0.00306040,-0.00523889,0.00170313,0.03518021,0.00043093,0.00120011,0.01727141,-0.00412478,0.01777273,0.01131940,-0.01039312,-0.01425838,-0.00600067,0.03837718,0.04749588,-0.00331027,0.00379648,-0.00460904,-0.00191942,0.00452564,0.00494653,-0.01222889,-0.01106930,-0.00172691,0.04834147,0.00057538,-0.00171804,0.00575437,-0.00195504,0.00352668,0.00243963,-0.00127106,-0.01291953,0.00058755,-0.00393279,0.00264074,0.00058709,0.00754726,0.00744359,-0.00061556,0.00221967,-0.00071544,-0.01109895,0.01270349,0, 00:00:04.0
42,-0.00385786,-0.00586565,-0.00865433,0.02713541,0.02587940,0.00486855,0.01525406,-0.00569535,0.00348067,-0.00738515,0.00217681,0.03265756,-0.00009699,0.00141181,0.01928615,-0.00434598,0.01588522,0.01214065,-0.01052638,-0.01404369,-0.00831250,0.03420156,0.04266196,-0.00294622,0.00356783,-0.00472887,-0.00209748,0.00463810,0.00507348,-0.01207076,-0.01037372,-0.00151810,0.04373994,0.00074371,-0.00060243,0.00668364,-0.00131478,0.00407072,0.00269948,-0.00134459,-0.01298659,0.00137722,-0.00508936,0.00322365,0.00117219,0.00831681,0.00731794,-0.00010726,0.00242014,-0.00074483,-0.01140597,0.01310460,0, 00:00:04.1
43,-0.00194001,-0.00426725,-0.00899296,0.02888800,0.02867871,0.00460782,0.01409314,-0.00690768,0.00382470,-0.00959856,0.00252425,0.03032206,-0.00082953,0.00160367,0.02115439,-0.00443349,0.01423442,0.01274323,-0.01101875,-0.01395114,-0.01119591,0.03008180,0.03785821,-0.00263068,0.00313759,-0.00481192,-0.00222256,0.00468017,0.00517238,-0.01176403,-0.01007374,-0.00256589,0.03898941,0.00110439,0.00037416,0.00742994,-0.00072373,0.00458517,0.00296058,-0.00134438,-0.01294651,0.00201921,-0.00629593,0.00364288,0.00161700,0.00899274,0.00721691,0.00050194,0.00260612,-0.00076862,-0.01180958,0.01364739,0, 00:00:04.2
44,-0.00023986,-0.00283115,-0.00905492,0.03050833,0.03126083,0.00459113,0.01297662,-0.00809906,0.00399493,-0.01197232,0.00297907,0.02694767,-0.00153796,0.00146191,0.02292043,-0.00441471,0.01268360,0.01321088,-0.01109413,-0.01390736,-0.01376547,0.02582927,0.03256254,-0.00237688,0.00270857,-0.00482909,-0.00237960,0.00470626,0.00521147,-0.01144691,-0.00982443,-0.00231229,0.03428022,0.00180435,0.00123609,0.00818749,-0.00016028,0.00498019,0.00333534,-0.00129679,-0.01303655,0.00250504,-0.00721246,0.00417272,0.00220400,0.00961187,0.00703049,0.00101045,0.00274408,-0.00075621,-0.01219465,0.01449671,0, 00:00:04.3
45,0.00145182,-0.00132740,-0.00919447,0.03201053,0.03372301,0.00474653,0.01202421,-0.00924308,0.00430064,-0.01445074,0.00330486,0.02363567,-0.00212188,0.00123348,0.02461739,-0.00475310,0.01123373,0.01373446,-0.01113994,-0.01401139,-0.01596182,0.02171515,0.02744122,-0.00212747,0.00237881,-0.00480816,-0.00248312,0.00473209,0.00522057,-0.01123321,-0.00957277,-0.00328751,0.02959127,0.00209409,0.00192394,0.00889025,0.00042635,0.00532748,0.00363462,-0.00119171,-0.01326893,0.00290526,-0.00803497,0.00476387,0.00282483,0.01018563,0.00682286,0.00141782,0.00283857,-0.00067724,-0.01241465,0.01534014,0, 00:00:04.5
46,0.00309672,0.00035693,-0.00953291,0.03330285,0.03619464,0.00478981,0.01110815,-0.01044597,0.00457694,-0.01710158,0.00362778,0.02092654,-0.00274685,0.00109363,0.02622095,-0.00486408,0.00994353,0.01412298,-0.01140342,-0.01407382,-0.01821675,0.01757061,0.02271419,-0.00187247,0.00203724,-0.00474960,-0.00256342,0.00471653,0.00523885,-0.01111172,-0.00942780,-0.00446760,0.02488560,0.00239861,0.00254352,0.00948437,0.00094735,0.00568935,0.00372382,-0.00126001,-0.01359159,0.00322877,-0.00868535,0.00519142,0.00333190,0.01064884,0.00654905,0.00174851,0.00289236,-0.00064852,-0.01231920,0.01627752,0, 00:00:04.5
47,0.00466715,0.00192992,-0.00958077,0.03447747,0.03850966,0.00484922,0.01015133,-0.01197288,0.00416001,-0.01949687,0.00397408,0.01847480,-0.00338495,0.00086810,0.02770526,-0.00489153,0.00840136,0.01462014,-0.01164086,-0.01367175,-0.02014619,0.01342668,0.01836427,-0.00150163,0.00166596,-0.00467606,-0.00264057,0.00469733,0.00529056,-0.01067336,-0.00896878,-0.00473007,0.02015637,0.00254420,0.00331802,0.01007779,0.00148123,0.00602833,0.00397288,-0.00141503,-0.01384029,0.00345269,-0.00954393,0.00579534,0.00392793,0.01104221,0.00622764,0.00201234,0.00293311,-0.00065014,-0.01164057,0.01704895,0, 00:00:04.6
48,0.00639058,0.00363049,-0.00988884,0.03546869,0.04066067,0.00468255,0.00931066,-0.01376356,0.00360348,-0.02159048,0.00428531,0.01557018,-0.00379890,0.00076903,0.02930106,-0.00498562,0.00704288,0.01520725,-0.01188584,-0.01316512,-0.02187158,0.00935884,0.01326582,-0.00105698,0.00142318,-0.00452548,-0.00270038,0.00465422,0.00534461,-0.01003832,-0.00812069,-0.00578146,0.01556365,0.00272705,0.00419632,0.01071210,0.00215671,0.00637589,0.00416054,-0.00127327,-0.01365551,0.00366822,-0.01050936,0.00653063,0.00434792,0.01135226,0.00592302,0.00227686,0.00298891,-0.00052446,-0.01033392,0.01715109,0, 00:00:04.7
49,0.00810028,0.00509286,-0.01001969,0.03674005,0.04279716,0.00476393,0.00840690,-0.01562681,0.00265594,-0.02345366,0.00473267,0.01214358,-0.00417595,0.00070057,0.03084906,-0.00458759,0.00565705,0.01573119,-0.01229631,-0.01243862,-0.02383368,0.00528307,0.00801857,-0.00061178,0.00117054,-0.00440298,-0.00270236,0.00461860,0.00540870,-0.00943603,-0.00723813,-0.00652762,0.01089375,0.00295600,0.00475799,0.01136651,0.00286569,0.00669352,0.00432912,-0.00111741,-0.01327430,0.00385795,-0.01159235,0.00686549,0.00456984,0.01153133,0.00561876,0.00249847,0.00305334,-0.00039915,-0.00898123,0.01693483,0, 00:00:04.8
50,0.00980436,0.00645721,-0.01026606,0.03800482,0.04486091,0.00503181,0.00749932,-0.01747266,0.00188308,-0.02528110,0.00509016,0.01000680,-0.00468432,0.00059462,0.03218739,-0.00458071,0.00438460,0.01604888,-0.01302499,-0.01178413,-0.02536606,0.00121088,0.00289771,-0.00028472,0.00090398,-0.00429434,-0.00270218,0.00449765,0.00544952,-0.00885062,-0.00646929,-0.00760076,0.00618413,0.00316509,0.00536813,0.01191731,0.00354138,0.00691603,0.00441162,-0.00106453,-0.01300760,0.00408036,-0.01265894,0.00702340,0.00472065,0.01155241,0.00530089,0.00268726,0.00298905,-0.00031749,-0.00789199,0.01657205,0, 00:00:05.0
51,0.01153861,0.00812776,-0.01044903,0.03907385,0.04697245,0.00505545,0.00661959,-0.01921508,0.00125611,-0.02725806,0.00548033,0.00647467,-0.00523150,0.00010432,0.03345705,-0.00472536,0.00305338,0.01641717,-0.01370826,-0.01130315,-0.02734307,-0.00285833,-0.00159023,0.00001550,0.00059960,-0.00417660,-0.00275644,0.00433902,0.00549098,-0.00835325,-0.00552359,-0.00754931,0.00154437,0.00364603,0.00585481,0.01237493,0.00419379,0.00710108,0.00461327,-0.00096380,-0.01265160,0.00440023,-0.01356991,0.00723982,0.00499706,0.01154859,0.00492380,0.00286794,0.00288515,-0.00009755,-0.00694861,0.01630348,0, 00:00:05.0
52,0.01312106,0.00964234,-0.01059466,0.04019186,0.04905739,0.00513941,0.00576698,-0.02090980,0.00056198,-0.02928521,0.00582562,0.00400672,-0.00575877,-0.00011489,0.03481200,-0.00504089,0.00164891,0.01678709,-0.01421041,-0.01084049,-0.02951364,-0.00699732,-0.00662107,0.00025130,0.00027777,-0.00407705,-0.00275504,0.00417117,0.00549143,-0.00799620,-0.00469909,-0.00752844,-0.00311013,0.00393911,0.00654262,0.01283635,0.00487657,0.00730494,0.00478355,-0.00074903,-0.01221561,0.00468918,-0.01443420,0.00750618,0.00524010,0.01165480,0.00456274,0.00298572,0.00275400,0.00011078,-0.00585830,0.01613211,0, 00:00:05.1
53,0.01491448,0.01114151,-0.01070947,0.04123535,0.05111793,0.00525515,0.00488397,-0.02257359,-0.00014456,-0.03153661,0.00623184,0.00111107,-0.00623488,-0.00016536,0.03614110,-0.00493135,0.00031252,0.01716194,-0.01484396,-0.01024995,-0.03156209,-0.01118048,-0.01148727,0.00058135,-0.00004271,-0.00398528,-0.00285546,0.00398337,0.00550426,-0.00769225,-0.00375542,-0.00809648,-0.00785771,0.00409266,0.00705820,0.01320626,0.00551974,0.00755721,0.00499459,-0.00062572,-0.01175545,0.00498452,-0.01611433,0.00816442,0.00561547,0.01178017,0.00418658,0.00312126,0.00261683,0.00016903,-0.00469347,0.01659573,0, 00:00:05.2
54,0.01668355,0.01305924,-0.01061629,0.04225130,0.05322081,0.00550099,0.00393832,-0.02413715,-0.00069588,-0.03357247,0.00667527,-0.00182005,-0.00653715,-0.00039688,0.03745799,-0.00494187,-0.00107751,0.01763381,-0.01535855,-0.00969401,-0.03350414,-0.01531778,-0.01689064,0.00072869,-0.00042272,-0.00385721,-0.00291147,0.00389136,0.00552229,-0.00729715,-0.00261881,-0.00892299,-0.01260714,0.00418117,0.00781059,0.01366286,0.00613987,0.00775803,0.00526839,-0.00064130,-0.01142892,0.00535602,-0.01833135,0.00994486,0.00610914,0.01191538,0.00382269,0.00330478,0.00254891,0.00022475,-0.00291024,0.01787649,0, 00:00:05.3
55,0.01835797,0.01514417,-0.00976388,0.04301450,0.05481421,0.00559570,0.00295700,-0.02530458,-0.00116331,-0.03554629,0.00727705,-0.00437161,-0.00643951,-0.00038767,0.03855664,-0.00502098,-0.00255343,0.01813750,-0.01528222,-0.00942627,-0.03520345,-0.01946183,-0.02254435,0.00107591,-0.00064857,-0.00362509,-0.00290645,0.00381429,0.00551347,-0.00700640,-0.00155747,-0.01002612,-0.01763637,0.00431742,0.00852617,0.01417062,0.00680195,0.00805038,0.00549259,-0.00047334,-0.01111911,0.00568345,-0.01988411,0.01142010,0.00649852,0.01206470,0.00343590,0.00358296,0.00253929,0.00040660,-0.00155020,0.01885428,0, 00:00:05.5
56,0.01982079,0.01732757,-0.00851794,0.04328868,0.05577392,0.00524899,0.00180314,-0.02639357,-0.00134316,-0.03757948,0.00787427,-0.00751681,-0.00617250,-0.00007696,0.03926798,-0.00478293,-0.00416802,0.01848306,-0.01551416,-0.00916964,-0.03670272,-0.02374888,-0.02770566,0.00138399,-0.00101446,-0.00337377,-0.00284226,0.00363987,0.00547939,-0.00650618,-0.00104676,-0.01054230,-0.02264968,0.00477483,0.00902280,0.01457714,0.00741027,0.00829882,0.00549755,-0.00016073,-0.01062530,0.00621450,-0.01973255,0.01132984,0.00667956,0.01206081,0.00301822,0.00389411,0.00254174,0.00041248,-0.00133002,0.01829989,0, 00:00:05.5
57,0.02128491,0.01968519,-0.00744961,0.04355545,0.05661732,0.00495531,0.00058817,-0.02758147,-0.00155163,-0.03925797,0.00818613,-0.01208434,-0.00584978,0.00021455,0.03992179,-0.00466180,-0.00589544,0.01866373,-0.01586092,-0.00877058,-0.03859111,-0.02817051,-0.03318483,0.00155153,-0.00143968,-0.00325633,-0.00295018,0.00341236,0.00538723,-0.00593275,-0.00048780,-0.00957269,-0.02759920,0.00507820,0.00965468,0.01500025,0.00790794,0.00841467,0.00555922,0.00009949,-0.01017228,0.00687087,-0.01927213,0.01107592,0.00688470,0.01195079,0.00259978,0.00415069,0.00246619,0.00057247,-0.00096925,0.01752156,0, 00:00:05.6
58,0.02278698,0.02190976,-0.00628511,0.04367857,0.05751051,0.00500684,-0.00037794,-0.02866254,-0.00171527,-0.04101432,0.00855751,-0.01533395,-0.00552544,0.00029966,0.04044624,-0.00436612,-0.00759667,0.01894856,-0.01589406,-0.00856794,-0.04085114,-0.03268878,-0.03891145,0.00183476,-0.00194528,-0.00310633,-0.00306085,0.00318548,0.00530842,-0.00566637,-0.00000679,-0.00828102,-0.03268275,0.00531703,0.01023900,0.01538037,0.00828013,0.00848467,0.00558675,0.00026933,-0.00955012,0.00751250,-0.01860169,0.01110723,0.00711616,0.01187414,0.00213801,0.00434557,0.00237096,0.00065566,-0.00056874,0.01670473,0, 00:00:05.7
59,0.02415094,0.02380805,-0.00496006,0.04341697,0.05802657,0.00496279,-0.00142617,-0.02947717,-0.00158867,-0.04261993,0.00899834,-0.01882753,-0.00542460,0.00033528,0.04069792,-0.00409981,-0.00912726,0.01921425,-0.01554649,-0.00834141,-0.04291271,-0.03722035,-0.04436879,0.00225658,-0.00232011,-0.00286213,-0.00307911,0.00298861,0.00523597,-0.00556759,0.00050049,-0.00888802,-0.03787760,0.00553806,0.01060173,0.01569407,0.00869976,0.00856125,0.00556010,0.00053922,-0.00903136,0.00809614,-0.01737937,0.01096763,0.00741240,0.01174748,0.00163691,0.00453289,0.00224536,0.00070866,0.00014999,0.01597911,0, 00:00:05.8
60,0.02556442,0.02530129,-0.00428295,0.04249833,0.05780604,0.00501213,-0.00258178,-0.02991551,-0.00104427,-0.04410258,0.00947736,-0.02235876,-0.00582898,0.00038133,0.04040289,-0.00415581,-0.01063011,0.01951650,-0.01483727,-0.00798726,-0.04490262,-0.04210531,-0.05004198,0.00264828,-0.00277664,-0.00264459,-0.00310939,0.00280615,0.00516660,-0.00541841,0.00121977,-0.00907770,-0.04324428,0.00579674,0.01106347,0.01600978,0.00912970,0.00872808,0.00560744,0.00078367,-0.00852814,0.00864515,-0.01657890,0.01119897,0.00764292,0.01168651,0.00112584,0.00476677,0.00214143,0.00082788,0.00075258,0.01540788,0, 00:00:06.0
61,0.02691838,0.02656132,-0.00377423,0.04089906,0.05716042,0.00504307,-0.00376205,-0.03017197,-0.00035229,-0.04552767,0.01000630,-0.02670144,-0.00654475,0.00039724,0.03982219,-0.00398414,-0.01226948,0.01984260,-0.01419150,-0.00742351,-0.04670374,-0.04688899,-0.05536617,0.00316284,-0.00332337,-0.00244842,-0.00305868,0.00268194,0.00508556,-0.00495791,0.00206940,-0.00949132,-0.04867688,0.00583131,0.01165567,0.01634636,0.00969734,0.00895185,0.00576328,0.00097774,-0.00793650,0.00926136,-0.01604183,0.01149418,0.00790782,0.01171874,0.00067536,0.00507507,0.00208829,0.00085128,0.00159774,0.01492772,0, 00:00:06.0
62,0.02820271,0.02745720,-0.00315889,0.03913627,0.05619729,0.00534796,-0.00455416,-0.03026812,0.00025026,-0.04690453,0.01041789,-0.03053979,-0.00739429,0.00036354,0.03896514,-0.00389490,-0.01370585,0.02000435,-0.01325171,-0.00690202,-0.04823908,-0.05132185,-0.06036178,0.00362355,-0.00373730,-0.00226339,-0.00296186,0.00255044,0.00491798,-0.00445364,0.00299039,-0.01005586,-0.05408423,0.00627933,0.01243525,0.01664073,0.01029944,0.00917235,0.00593495,0.00127178,-0.00699605,0.00968386,-0.01548239,0.01133529,0.00789005,0.01168024,0.00027799,0.00546945,0.00198918,0.00087227,0.00209072,0.01448319,0, 00:00:06.1
63,0.02937681,0.02806594,-0.00320802,0.03702489,0.05504623,0.00548665,-0.00530252,-0.03029878,0.00064451,-0.04825873,0.01086222,-0.03367382,-0.00863335,0.00051349,0.03800429,-0.00383378,-0.01514506,0.02008178,-0.01232304,-0.00610310,-0.04964758,-0.05530608,-0.06428543,0.00398797,-0.00423653,-0.00211726,-0.00291456,0.00234663,0.00469425,-0.00354642,0.00425823,-0.01090909,-0.05921721,0.00684632,0.01340151,0.01687221,0.01077637,0.00929143,0.00599780,0.00145858,-0.00589716,0.01020952,-0.01499202,0.01109022,0.00767003,0.01168615,-0.00014229,0.00587308,0.00185021,0.00091950,0.00246741,0.01377291,0, 00:00:06.2
64,0.03057205,0.02858430,-0.00326485,0.03478034,0.05384044,0.00559292,-0.00636038,-0.03026725,0.00105521,-0.04951154,0.01101016,-0.03720962,-0.00978014,0.00049627,0.03685578,-0.00381263,-0.01674233,0.02012488,-0.01135679,-0.00522921,-0.05118444,-0.05969286,-0.06897235,0.00418398,-0.00461331,-0.00197729,-0.00290248,0.00214019,0.00446669,-0.00281913,0.00547521,-0.01201874,-0.06439996,0.00727535,0.01418819,0.01712652,0.01113465,0.00932825,0.00615394,0.00160738,-0.00484121,0.01065347,-0.01451767,0.01056100,0.00771500,0.01169166,-0.00062571,0.00614538,0.00163025,0.00095731,0.00288151,0.01290576,0, 00:00:06.3
65,0.03183283,0.02947856,-0.00305985,0.03241512,0.05257719,0.00574134,-0.00738058,-0.03025461,0.00158857,-0.05089788,0.01087570,-0.04020208,-0.01073758,0.00041888,0.03569227,-0.00388389,-0.01850616,0.02020097,-0.01036316,-0.00441136,-0.05266984,-0.06427267,-0.07469578,0.00435909,-0.00512072,-0.00190951,-0.00293095,0.00189469,0.00426759,-0.00186980,0.00660873,-0.01232143,-0.06982189,0.00750208,0.01484531,0.01731233,0.01152179,0.00930425,0.00632991,0.00183181,-0.00368134,0.01106845,-0.01409408,0.01015180,0.00792095,0.01163807,-0.00111478,0.00631251,0.00135529,0.00100215,0.00333429,0.01207665,0, 00:00:06.5
66,0.03326719,0.03034578,-0.00288829,0.03010742,0.05121145,0.00611324,-0.00849092,-0.03011524,0.00222220,-0.05223341,0.01121891,-0.04411087,-0.01167899,0.00046978,0.03436748,-0.00359191,-0.01988905,0.02028290,-0.00918594,-0.00359427,-0.05400580,-0.06891172,-0.08049209,0.00453671,-0.00575230,-0.00183555,-0.00292978,0.00166685,0.00405031,-0.00112041,0.00776005,-0.01319861,-0.07537596,0.00783419,0.01562410,0.01752849,0.01186694,0.00930740,0.00637991,0.00198959,-0.00264891,0.01152456,-0.01325373,0.01008969,0.00819756,0.01159672,-0.00166608,0.00649606,0.00106724,0.00108572,0.00381998,0.01132872,0, 00:00:06.5
67,0.03474213,0.03136251,-0.00279462,0.02779396,0.04982034,0.00648209,-0.00959727,-0.02972813,0.00320339,-0.05368510,0.01173789,-0.04851903,-0.01256466,0.00034839,0.03299658,-0.00338301,-0.02139813,0.02050958,-0.00788317,-0.00274087,-0.05547476,-0.07372549,-0.08647577,0.00486401,-0.00609781,-0.00172405,-0.00287432,0.00145679,0.00394405,-0.00061363,0.00906790,-0.01372024,-0.08088015,0.00800785,0.01650738,0.01782786,0.01223593,0.00933884,0.00636589,0.00214556,-0.00176368,0.01208231,-0.01282820,0.01008423,0.00847903,0.01160731,-0.00219129,0.00670195,0.00080417,0.00134300,0.00434847,0.01034352,0, 00:00:06.6
68,0.03633956,0.03235801,-0.00253911,0.02532156,0.04834959,0.00667412,-0.01049364,-0.02928504,0.00427190,-0.05521939,0.01193232,-0.05249007,-0.01326503,0.00008957,0.03148015,-0.00331875,-0.02269663,0.02061480,-0.00684852,-0.00170737,-0.05644514,-0.07872041,-0.09286460,0.00526771,-0.00632294,-0.00163501,-0.00271606,0.00124876,0.00379008,-0.00000907,0.01017016,-0.01330958,-0.08658884,0.00824425,0.01731163,0.01805662,0.01259674,0.00938790,0.00640281,0.00212382,-0.00109770,0.01260106,-0.01232996,0.00996100,0.00861021,0.01159776,-0.00265632,0.00703314,0.00059895,0.00146585,0.00429269,0.00894764,0, 00:00:06.7
69,0.03795100,0.03359421,-0.00226514,0.02286367,0.04676119,0.00679891,-0.01154676,-0.02893137,0.00529509,-0.05665429,0.01236015,-0.05704632,-0.01376487,0.00013403,0.02981396,-0.00314190,-0.02406497,0.02053925,-0.00575517,-0.00084974,-0.05831540,-0.08359036,-0.09947229,0.00552554,-0.00667004,-0.00153644,-0.00263903,0.00094158,0.00358714,0.00064274,0.01125242,-0.01319828,-0.09239285,0.00869157,0.01786929,0.01814461,0.01299817,0.00941419,0.00648048,0.00234902,-0.00062208,0.01284549,-0.01199987,0.00968662,0.00867963,0.01148634,-0.00312542,0.00742286,0.00041923,0.00157377,0.00417930,0.00784391,0, 00:00:06.8
70,0.03953365,0.03504661,-0.00154207,0.02031254,0.04514994,0.00702919,-0.01258134,-0.02855543,0.00595557,-0.05818425,0.01270044,-0.06187086,-0.01409202,-0.00028781,0.02818321,-0.00290902,-0.02540834,0.02053504,-0.00457180,-0.00018997,-0.06048862,-0.08838449,-0.10560331,0.00575791,-0.00720299,-0.00151094,-0.00267658,0.00061143,0.00335044,0.00119209,0.01232832,-0.01234638,-0.09808358,0.00929197,0.01845539,0.01822012,0.01331073,0.00934313,0.00651801,0.00260766,0.00008751,0.01296085,-0.01190471,0.00954175,0.00882579,0.01142094,-0.00362756,0.00773844,0.00015466,0.00171407,0.00446148,0.00749429,0, 00:00:07.0
71,0.04112792,0.03645109,-0.00075208,0.01750984,0.04320786,0.00723945,-0.01364370,-0.02795448,0.00640180,-0.05995310,0.01288427,-0.06582369,-0.01416239,-0.00029438,0.02641457,-0.00253560,-0.02685506,0.02046026,-0.00324215,0.00047753,-0.06251165,-0.09314676,-0.11136512,0.00611566,-0.00762128,-0.00148978,-0.00263967,0.00032937,0.00307151,0.00173152,0.01331317,-0.01154925,-0.10350095,0.00945741,0.01907533,0.01830860,0.01362335,0.00931521,0.00648045,0.00256733,0.00080573,0.01320245,-0.01167372,0.00960486,0.00912426,0.01138578,-0.00415912,0.00796926,-0.00012512,0.00182409,0.00483695,0.00763475,0, 00:00:07.0
72,0.04241752,0.03789575,0.00010818,0.01445173,0.04092559,0.00744835,-0.01489902,-0.02722928,0.00679968,-0.06143202,0.01279902,-0.06919388,-0.01409008,-0.00037423,0.02449302,-0.00241042,-0.02847072,0.02040003,-0.00192781,0.00111097,-0.06445998,-0.09711088,-0.11632009,0.00651874,-0.00808333,-0.00153830,-0.00254106,-0.00001527,0.00282677,0.00234772,0.01433951,-0.01263815,-0.10815705,0.00961184,0.01932678,0.01834958,0.01390347,0.00928173,0.00640212,0.00246597,0.00150170,0.01338807,-0.01157434,0.00988857,0.00934179,0.01112125,-0.00469448,0.00818314,-0.00042996,0.00186292,0.00505467,0.00799333,0, 00:00:07.1
73,0.04368728,0.03942065,0.00135184,0.01119670,0.03844266,0.00754901,-0.01608473,-0.02638232,0.00736477,-0.06271646,0.01274196,-0.07188018,-0.01389350,-0.00056762,0.02236477,-0.00250958,-0.02996877,0.02035601,-0.00044270,0.00165366,-0.06638867,-0.10046511,-0.11962900,0.00681329,-0.00844116,-0.00159747,-0.00246928,-0.00037466,0.00260860,0.00354151,0.01543022,-0.01202715,-0.11177304,0.00974164,0.01954434,0.01843650,0.01421667,0.00933786,0.00648040,0.00268715,0.00216939,0.01358533,-0.01179847,0.01024407,0.00936029,0.01066294,-0.00524218,0.00835121,-0.00074191,0.00198250,0.00555749,0.00868060,0, 00:00:07.2
74,0.04485242,0.04093080,0.00202206,0.00785233,0.03604586,0.00780524,-0.01715478,-0.02550062,0.00797389,-0.06371952,0.01286782,-0.07482408,-0.01356441,-0.00091511,0.02016191,-0.00228653,-0.03137696,0.02037348,0.00102028,0.00229059,-0.06783460,-0.10327193,-0.12293968,0.00719977,-0.00869430,-0.00169724,-0.00237033,-0.00077414,0.00243587,0.00452234,0.01647208,-0.01152362,-0.11502014,0.00952972,0.01960647,0.01853597,0.01448349,0.00944414,0.00635611,0.00294481,0.00280414,0.01391166,-0.01134321,0.01048635,0.00925067,0.01004334,-0.00573977,0.00854044,-0.00101103,0.00209496,0.00623768,0.00938789,0, 00:00:07.3
75,0.04562303,0.04227912,0.00222959,0.00471581,0.03362543,0.00797917,-0.01819481,-0.02473960,0.00851716,-0.06481192,0.01277825,-0.07660795,-0.01329512,-0.00121024,0.01783029,-0.00233246,-0.03259262,0.02033787,0.00224146,0.00288879,-0.06971212,-0.10590138,-0.12591048,0.00758787,-0.00882897,-0.00174074,-0.00227365,-0.00118781,0.00228316,0.00530091,0.01751230,-0.01015927,-0.11787149,0.00968965,0.01947138,0.01862558,0.01478465,0.00942928,0.00602493,0.00311302,0.00350679,0.01426337,-0.01082394,0.01042763,0.00900931,0.00932092,-0.00626649,0.00875805,-0.00129307,0.00208684,0.00663429,0.00991162,0, 00:00:07.5
76,0.04629869,0.04329716,0.00297083,0.00159839,0.03104711,0.00779506,-0.01936624,-0.02405064,0.00907598,-0.06601369,0.01247267,-0.07768765,-0.01304914,-0.00137849,0.01542388,-0.00231845,-0.03391812,0.02008432,0.00337119,0.00349150,-0.07140598,-0.10822762,-0.12822236,0.00791314,-0.00911679,-0.00179112,-0.00225833,-0.00161977,0.00204977,0.00622764,0.01852512,-0.01046803,-0.12047497,0.00989510,0.01943721,0.01860691,0.01496491,0.00930671,0.00569917,0.00341231,0.00423832,0.01455450,-0.01028754,0.01027248,0.00869484,0.00855725,-0.00680098,0.00889708,-0.00164333,0.00210714,0.00683032,0.01039025,0, 00:00:07.5
77,0.04727712,0.04439208,0.00384580,-0.00156799,0.02838396,0.00768054,-0.02068384,-0.02345121,0.00972256,-0.06727045,0.01229690,-0.07897604,-0.01281719,-0.00150141,0.01304126,-0.00228342,-0.03535252,0.01994443,0.00440197,0.00414129,-0.07323080,-0.11021219,-0.13038407,0.00822054,-0.00935119,-0.00191482,-0.00227820,-0.00209777,0.00177773,0.00711684,0.01971917,-0.01037903,-0.12277177,0.01002664,0.01940604,0.01857471,0.01496230,0.00915113,0.00544014,0.00342807,0.00504818,0.01491770,-0.01006829,0.01023216,0.00849997,0.00790323,-0.00741581,0.00887545,-0.00204457,0.00220774,0.00701014,0.01089989,0, 00:00:07.6
78,0.04843786,0.04584924,0.00481011,-0.00495052,0.02564253,0.00746033,-0.02199076,-0.02324163,0.00962494,-0.06841382,0.01197636,-0.07955162,-0.01246529,-0.00162419,0.01072250,-0.00209414,-0.03661728,0.01971608,0.00544572,0.00468497,-0.07480420,-0.11142628,-0.13179284,0.00837596,-0.00972632,-0.00201056,-0.00232493,-0.00263529,0.00144567,0.00811456,0.02076567,-0.01078495,-0.12443713,0.01010381,0.01948816,0.01849565,0.01495103,0.00895271,0.00495982,0.00331068,0.00584561,0.01514855,-0.00955822,0.01012614,0.00847852,0.00725340,-0.00806431,0.00877480,-0.00249029,0.00223415,0.00725559,0.01151754,0, 00:00:07.7
79,0.04949920,0.04692425,0.00537783,-0.00857319,0.02265538,0.00740189,-0.02306850,-0.02402793,0.00859863,-0.06893947,0.01144912,-0.07944757,-0.01230558,-0.00168284,0.00845827,-0.00206045,-0.03809725,0.01954338,0.00560576,0.00553418,-0.07635023,-0.11209650,-0.13248223,0.00864453,-0.01006242,-0.00202444,-0.00239573,-0.00315401,0.00108672,0.00888255,0.02185817,-0.00916360,-0.12542154,0.01023882,0.01961078,0.01843697,0.01495638,0.00871923,0.00462175,0.00357820,0.00652080,0.01541749,-0.00922465,0.01004555,0.00858810,0.00674124,-0.00875995,0.00865436,-0.00290069,0.00222552,0.00755497,0.01234054,0, 00:00:07.8
80,0.05030016,0.04769320,0.00571686,-0.01210002,0.01934017,0.00729814,-0.02415120,-0.02573334,0.00679978,-0.06908857,0.01076222,-0.07884504,-0.01248051,-0.00168270,0.00624353,-0.00174432,-0.03943693,0.01945436,0.00528781,0.00642518,-0.07725350,-0.11219752,-0.13308416,0.00898593,-0.01017662,-0.00211315,-0.00240245,-0.00370472,0.00074329,0.00972049,0.02310261,-0.00624561,-0.12582810,0.01034940,0.01972826,0.01838836,0.01491779,0.00851580,0.00420145,0.00358303,0.00707986,0.01576898,-0.00899144,0.00995016,0.00867678,0.00632079,-0.00948984,0.00853066,-0.00326882,0.00225056,0.00802225,0.01305079,0, 00:00:08.0
81,0.05088909,0.04815506,0.00598704,-0.01551532,0.01614328,0.00700259,-0.02507222,-0.02784519,0.00482377,-0.06872347,0.01031174,-0.07711381,-0.01292544,-0.00161497,0.00420497,-0.00150769,-0.04065326,0.01941597,0.00486784,0.00732783,-0.07814287,-0.11174078,-0.13301343,0.00926597,-0.01024160,-0.00209648,-0.00239729,-0.00420126,0.00035877,0.01083857,0.02435984,-0.00456293,-0.12577900,0.01028100,0.01972099,0.01838335,0.01497636,0.00835661,0.00377328,0.00341929,0.00774153,0.01608891,-0.00836418,0.00994874,0.00867723,0.00578374,-0.01023959,0.00843773,-0.00359192,0.00217886,0.00843754,0.01380627,0, 00:00:08.0
82,0.05099672,0.04788764,0.00587829,-0.01911658,0.01296107,0.00666947,-0.02605340,-0.03002276,0.00271850,-0.06827781,0.00971207,-0.07542989,-0.01351060,-0.00179242,0.00237939,-0.00128353,-0.04177564,0.01931398,0.00436130,0.00811229,-0.07931806,-0.11114256,-0.13300382,0.00951011,-0.01042786,-0.00204989,-0.00230649,-0.00478326,0.00002097,0.01154845,0.02559593,-0.00530510,-0.12559384,0.01022615,0.01977938,0.01834882,0.01524059,0.00820622,0.00332600,0.00343509,0.00834594,0.01635512,-0.00769737,0.00941626,0.00864640,0.00514388,-0.01096943,0.00839698,-0.00397100,0.00208425,0.00865894,0.01427036,0, 00:00:08.1
83,0.05108462,0.04757706,0.00580983,-0.02235932,0.00988933,0.00617672,-0.02693887,-0.03200596,0.00099476,-0.06803808,0.00908909,-0.07523810,-0.01407366,-0.00213687,0.00062875,-0.00103255,-0.04254610,0.01939116,0.00404537,0.00897717,-0.07929216,-0.11066668,-0.13270494,0.00977772,-0.01076876,-0.00211784,-0.00222063,-0.00544983,-0.00028097,0.01210842,0.02681396,-0.00422506,-0.12566777,0.01043741,0.01996855,0.01831910,0.01545156,0.00803489,0.00286025,0.00351703,0.00913379,0.01655559,-0.00704575,0.00913761,0.00866875,0.00456913,-0.01167228,0.00831842,-0.00447777,0.00213883,0.00895278,0.01479578,0, 00:00:08.2
84,0.05142492,0.04743889,0.00573628,-0.02572170,0.00707169,0.00567804,-0.02789657,-0.03254150,0.00052639,-0.06827055,0.00882515,-0.07632162,-0.01457789,-0.00260983,-0.00123771,-0.00078847,-0.04392213,0.01942065,0.00454169,0.00987655,-0.07990345,-0.11119217,-0.13310087,0.00994836,-0.01097509,-0.00224124,-0.00214961,-0.00607961,-0.00048715,0.01292551,0.02801583,-0.00314788,-0.12637374,0.01062994,0.02021802,0.01827617,0.01564229,0.00785421,0.00261604,0.00381205,0.00993864,0.01659890,-0.00657699,0.00906297,0.00871250,0.00407320,-0.01237544,0.00814178,-0.00505647,0.00213279,0.00939170,0.01535869,0, 00:00:08.3
85,0.05187505,0.04733611,0.00543097,-0.02914132,0.00444992,0.00556352,-0.02870930,-0.03140495,0.00156647,-0.06845654,0.00890232,-0.07657896,-0.01507481,-0.00303208,-0.00337316,-0.00092408,-0.04502771,0.01912979,0.00594119,0.01057190,-0.08072534,-0.11227524,-0.13385487,0.01002914,-0.01116370,-0.00234366,-0.00211768,-0.00669627,-0.00078500,0.01373032,0.02900223,-0.00256158,-0.12743351,0.01088449,0.02031592,0.01824909,0.01565176,0.00763049,0.00222475,0.00397328,0.01103663,0.01671744,-0.00614704,0.00911517,0.00877202,0.00361337,-0.01307893,0.00797766,-0.00563223,0.00198936,0.00983006,0.01612900,0, 00:00:08.5
86,0.05254336,0.04741214,0.00537321,-0.03216742,0.00202150,0.00563735,-0.02932478,-0.03026878,0.00241504,-0.06924573,0.00920449,-0.07729030,-0.01554865,-0.00352809,-0.00537529,-0.00098232,-0.04553558,0.01891357,0.00742242,0.01127579,-0.08135793,-0.11340275,-0.13529313,0.01009666,-0.01142881,-0.00239196,-0.00212295,-0.00730980,-0.00100548,0.01441545,0.03010287,-0.00226578,-0.12837964,0.01108110,0.02057674,0.01821010,0.01566756,0.00745872,0.00194814,0.00411184,0.01216609,0.01716996,-0.00591407,0.00934160,0.00895534,0.00323917,-0.01377568,0.00783281,-0.00619457,0.00188639,0.01049113,0.01688760,0, 00:00:08.5
87,0.05328796,0.04767571,0.00540531,-0.03513090,-0.00045797,0.00552760,-0.02999935,-0.02923536,0.00322696,-0.06926346,0.00962078,-0.07816552,-0.01591168,-0.00386120,-0.00718691,-0.00072317,-0.04619526,0.01877032,0.00872612,0.01209013,-0.08210095,-0.11449116,-0.13639018,0.01008361,-0.01172860,-0.00250593,-0.00208650,-0.00792633,-0.00125486,0.01520457,0.03149435,-0.00110454,-0.12941167,0.01097345,0.02092158,0.01816440,0.01573926,0.00733909,0.00155494,0.00428198,0.01307659,0.01766420,-0.00537974,0.00939012,0.00913907,0.00289123,-0.01445745,0.00775930,-0.00669092,0.00188485,0.01117065,0.01754481,0, 00:00:08.6
88,0.05387196,0.04794075,0.00518747,-0.03812334,-0.00298322,0.00540723,-0.03083690,-0.02831367,0.00386427,-0.06968056,0.01011280,-0.07929321,-0.01638355,-0.00390312,-0.00900549,-0.00058240,-0.04692803,0.01855716,0.01001361,0.01294702,-0.08255932,-0.11562920,-0.13727976,0.01014506,-0.01183646,-0.00266234,-0.00205199,-0.00853737,-0.00152896,0.01600970,0.03264533,-0.00044180,-0.13039827,0.01110862,0.02109218,0.01812107,0.01590267,0.00727933,0.00102231,0.00432885,0.01402443,0.01806213,-0.00479793,0.00946510,0.00921298,0.00247326,-0.01509532,0.00779267,-0.00714126,0.00179039,0.01155015,0.01808432,0, 00:00:08.7
89,0.05437593,0.04802075,0.00487531,-0.04143811,-0.00560588,0.00563724,-0.03166581,-0.02730110,0.00476867,-0.07014025,0.01035647,-0.08073825,-0.01690248,-0.00421167,-0.01119236,-0.00057114,-0.04786258,0.01815294,0.01114314,0.01383470,-0.08298946,-0.11674485,-0.13834581,0.01010508,-0.01193647,-0.00281673,-0.00201342,-0.00922769,-0.00178087,0.01674823,0.03363654,-0.00008231,-0.13146587,0.01144511,0.02117767,0.01787143,0.01595545,0.00710395,0.00037620,0.00453964,0.01515046,0.01843007,-0.00454491,0.00918307,0.00926198,0.00198836,-0.01573287,0.00785577,-0.00759240,0.00165191,0.01203249,0.01851756,0, 00:00:08.8
90,0.05509022,0.04791070,0.00485003,-0.04471144,-0.00812806,0.00595947,-0.03237938,-0.02613496,0.00598386,-0.07035357,0.01097598,-0.08080441,-0.01739689,-0.00483772,-0.01356129,-0.00016160,-0.04865647,0.01762517,0.01252305,0.01482243,-0.08354290,-0.11799654,-0.13917843,0.01006563,-0.01212045,-0.00289085,-0.00201813,-0.00987036,-0.00207357,0.01768258,0.03476798,0.00042993,-0.13250212,0.01192336,0.02147509,0.01756855,0.01586988,0.00685129,-0.00022054,0.00466396,0.01642742,0.01871479,-0.00423779,0.00908200,0.00941274,0.00165373,-0.01638123,0.00783740,-0.00804923,0.00158132,0.01280348,0.01875116,0, 00:00:09.0
91,0.05590353,0.04763660,0.00441540,-0.04795932,-0.01069106,0.00594489,-0.03300632,-0.02551145,0.00658136,-0.07041068,0.01162427,-0.08141143,-0.01811539,-0.00537782,-0.01585772,0.00013702,-0.04921762,0.01709898,0.01361698,0.01661956,-0.08397270,-0.11907871,-0.14018816,0.01002275,-0.01239460,-0.00301700,-0.00203061,-0.01047081,-0.00242798,0.01929767,0.03680301,0.00220025,-0.13336617,0.01243905,0.02186225,0.01716664,0.01571456,0.00659348,-0.00079780,0.00478124,0.01853553,0.01882351,-0.00396264,0.00935111,0.00967489,0.00146226,-0.01698692,0.00782094,-0.00856575,0.00160640,0.01374161,0.01864058,0, 00:00:09.0
92,0.05680504,0.04722590,0.00389016,-0.05138326,-0.01362672,0.00600980,-0.03361828,-0.02633021,0.00552368,-0.07009555,0.01211213,-0.08239542,-0.01905063,-0.00582346,-0.01806385,0.00036107,-0.04992875,0.01666033,0.01386235,0.01902179,-0.08426318,-0.11991692,-0.14141715,0.00991015,-0.01276941,-0.00317256,-0.00205746,-0.01111993,-0.00278346,0.02116228,0.03957516,0.00292450,-0.13413016,0.01285639,0.02247544,0.01673750,0.01559498,0.00631179,-0.00128622,0.00469562,0.02142495,0.01903017,-0.00356376,0.00967801,0.01011299,0.00125100,-0.01762402,0.00787545,-0.00907074,0.00168782,0.01511728,0.01837451,0, 00:00:09.1
93,0.05775847,0.04662725,0.00319490,-0.05466875,-0.01671174,0.00569511,-0.03428489,-0.02781389,0.00376960,-0.07009015,0.01253016,-0.08341467,-0.02014341,-0.00623901,-0.02016360,0.00055234,-0.05082502,0.01647872,0.01384905,0.02202973,-0.08394678,-0.12061103,-0.14167905,0.00986948,-0.01303362,-0.00337173,-0.00209057,-0.01170111,-0.00309141,0.02289785,0.04291643,0.00357586,-0.13483854,0.01298767,0.02302150,0.01648290,0.01551353,0.00607209,-0.00166121,0.00467834,0.02425703,0.01931308,-0.00301925,0.01021186,0.01061830,0.00112026,-0.01831848,0.00788864,-0.00955063,0.00169371,0.01680618,0.01791256,0, 00:00:09.2
94,0.05882260,0.04625610,0.00226126,-0.05775508,-0.01977724,0.00551435,-0.03473536,-0.02915890,0.00194062,-0.07029741,0.01273596,-0.08362503,-0.02120478,-0.00641161,-0.02224633,0.00078543,-0.05168350,0.01636850,0.01369740,0.02504179,-0.08371425,-0.12114825,-0.14265078,0.00992989,-0.01312418,-0.00357587,-0.00199407,-0.01229838,-0.00337307,0.02481112,0.04616756,0.00382947,-0.13558483,0.01278637,0.02355205,0.01616662,0.01544004,0.00583419,-0.00213284,0.00493335,0.02714498,0.01970494,-0.00262872,0.01052791,0.01089999,0.00096514,-0.01895890,0.00791582,-0.00996003,0.00176916,0.01830848,0.01696395,0, 00:00:09.3
95,0.05980173,0.04570547,0.00134736,-0.06075232,-0.02271676,0.00517019,-0.03538283,-0.03024643,0.00048621,-0.07074715,0.01292192,-0.08432426,-0.02229058,-0.00649381,-0.02441558,0.00108686,-0.05264405,0.01609668,0.01362424,0.02783349,-0.08381531,-0.12172577,-0.14352179,0.01000282,-0.01334745,-0.00384618,-0.00190225,-0.01294667,-0.00362581,0.02683349,0.04906037,0.00474829,-0.13635020,0.01302412,0.02402761,0.01588083,0.01534311,0.00562033,-0.00267370,0.00503081,0.03029977,0.02017376,-0.00221972,0.01051402,0.01112359,0.00078057,-0.01963167,0.00795409,-0.01042300,0.00168886,0.01902608,0.01584171,0, 00:00:09.5
96,0.06079302,0.04507973,0.00083321,-0.06375059,-0.02560602,0.00491516,-0.03593383,-0.03123732,-0.00094458,-0.07095370,0.01297479,-0.08423816,-0.02346295,-0.00672318,-0.02658596,0.00133459,-0.05357883,0.01586703,0.01362322,0.03066751,-0.08411514,-0.12231168,-0.14434899,0.00997928,-0.01374555,-0.00411188,-0.00195052,-0.01354356,-0.00390886,0.02891287,0.05197103,0.00564430,-0.13701190,0.01332489,0.02448597,0.01556787,0.01519276,0.00532423,-0.00300085,0.00525121,0.03333846,0.02078494,-0.00188842,0.01065877,0.01151198,0.00076324,-0.02029884,0.00790729,-0.01096160,0.00164770,0.01914364,0.01476374,0, 00:00:09.5
97,0.06188729,0.04478452,-0.00001521,-0.06662454,-0.02833758,0.00475808,-0.03654718,-0.03203677,-0.00205005,-0.07151663,0.01305361,-0.08557655,-0.02469740,-0.00678541,-0.02865137,0.00156252,-0.05416754,0.01562217,0.01369276,0.03336905,-0.08469273,-0.12297434,-0.14566684,0.00996850,-0.01415815,-0.00441616,-0.00199611,-0.01414137,-0.00417055,0.03034170,0.05490452,0.00597416,-0.13765801,0.01339795,0.02481727,0.01533290,0.01500800,0.00498945,-0.00332746,0.00548734,0.03607085,0.02145268,-0.00136855,0.01093031,0.01196593,0.00083258,-0.02093665,0.00782527,-0.01151090,0.00167177,0.01886885,0.01383559,0, 00:00:09.6
98,0.06305074,0.04420249,-0.00092484,-0.06923293,-0.03089645,0.00456269,-0.03714593,-0.03236835,-0.00259739,-0.07210221,0.01306225,-0.08660781,-0.02603944,-0.00700758,-0.03087784,0.00167757,-0.05484837,0.01539143,0.01386281,0.03577683,-0.08492238,-0.12371401,-0.14655697,0.00997117,-0.01459600,-0.00476235,-0.00196333,-0.01470426,-0.00442350,0.03196405,0.05731670,0.00647833,-0.13845426,0.01350713,0.02507407,0.01505375,0.01474899,0.00468841,-0.00378283,0.00539805,0.03851956,0.02217660,-0.00066860,0.01107922,0.01240238,0.00099700,-0.02157808,0.00775597,-0.01203752,0.00157500,0.01798941,0.01350740,0, 00:00:09.7
99,0.06422953,0.04368065,-0.00213341,-0.07200415,-0.03338740,0.00430835,-0.03762127,-0.03188286,-0.00195025,-0.07297333,0.01315324,-0.08652728,-0.02725537,-0.00718417,-0.03330973,0.00134168,-0.05539341,0.01521652,0.01455265,0.03790288,-0.08533957,-0.12447857,-0.14735760,0.00974240,-0.01492235,-0.00508196,-0.00194788,-0.01531876,-0.00464692,0.03363160,0.05958164,0.00749961,-0.13926037,0.01366205,0.02548151,0.01467031,0.01448083,0.00439178,-0.00430443,0.00561746,0.04071163,0.02301506,0.00017190,0.01144930,0.01286303,0.00120088,-0.02220341,0.00772267,-0.01252706,0.00150156,0.01691742,0.01342931,0, 00:00:09.8
100,0.06541698,0.04351616,-0.00313126,-0.07486042,-0.03565866,0.00442321,-0.03782547,-0.03027459,-0.00013187,-0.07365220,0.01380131,-0.08706374,-0.02832687,-0.00748419,-0.03565638,0.00145434,-0.05594596,0.01509157,0.01620135,0.03970670,-0.08620118,-0.12535886,-0.14858972,0.00965665,-0.01501353,-0.00533723,-0.00185847,-0.01588937,-0.00484382,0.03505498,0.06164034,0.00958878,-0.14007936,0.01392776,0.02597122,0.01435743,0.01420865,0.00421843,-0.00475434,0.00590244,0.04256303,0.02387534,0.00124432,0.01180253,0.01336655,0.00152271,-0.02285731,0.00770750,-0.01293392,0.00151703,0.01557135,0.01345217,0, 00:00:10.0
101,0.06654727,0.04342918,-0.00398355,-0.07754827,-0.03788085,0.00475575,-0.03822346,-0.02865859,0.00152030,-0.07448020,0.01447963,-0.08766650,-0.02929546,-0.00771145,-0.03792564,0.00186172,-0.05637930,0.01481156,0.01775896,0.04141200,-0.08709812,-0.12645794,-0.14974555,0.00966337,-0.01508273,-0.00556785,-0.00170367,-0.01650957,-0.00503501,0.03655336,0.06325779,0.01056428,-0.14094627,0.01410149,0.02643421,0.01409776,0.01401877,0.00406515,-0.00533582,0.00605317,0.04414924,0.02470717,0.00240188,0.01152509,0.01373028,0.00178836,-0.02345963,0.00774086,-0.01334195,0.00140286,0.01358776,0.01327348,1, 00:00:10.0
102,0.06753957,0.04333921,-0.00428235,-0.08008572,-0.04017081,0.00506291,-0.03870696,-0.02734334,0.00291285,-0.07536060,0.01493281,-0.08812416,-0.03029254,-0.00836098,-0.04031111,0.00232798,-0.05665736,0.01440951,0.01905245,0.04324848,-0.08743040,-0.12737800,-0.15073924,0.00953577,-0.01541513,-0.00577571,-0.00159716,-0.01717735,-0.00527655,0.03815911,0.06471243,0.01077868,-0.14188826,0.01433498,0.02664211,0.01379801,0.01375633,0.00382002,-0.00578665,0.00634635,0.04558884,0.02558571,0.00400967,0.01057703,0.01413291,0.00196594,-0.02407477,0.00778786,-0.01377250,0.00133012,0.01074177,0.01268672,0, 00:00:10.1
103,0.06834987,0.04313316,-0.00481727,-0.08273133,-0.04251030,0.00535347,-0.03918112,-0.02610868,0.00419895,-0.07610368,0.01518494,-0.08930841,-0.03139255,-0.00889952,-0.04265809,0.00255133,-0.05705261,0.01400535,0.02038146,0.04511469,-0.08826578,-0.12836199,-0.15187173,0.00926002,-0.01570878,-0.00602402,-0.00149204,-0.01783453,-0.00554779,0.03985348,0.06617779,0.01220671,-0.14273819,0.01458753,0.02708156,0.01351478,0.01345851,0.00357477,-0.00621686,0.00648246,0.04705501,0.02634638,0.00653285,0.00935073,0.01458216,0.00213377,-0.02471780,0.00780222,-0.01421448,0.00132426,0.00755174,0.01126827,0, 00:00:10.2
104,0.06912659,0.04278849,-0.00556563,-0.08535704,-0.04491305,0.00556348,-0.03944024,-0.02490944,0.00550085,-0.07689419,0.01545828,-0.09056909,-0.03255957,-0.00936661,-0.04495883,0.00283246,-0.05747472,0.01361962,0.02188970,0.04709111,-0.08899712,-0.12918614,-0.15323544,0.00909354,-0.01591384,-0.00618998,-0.00135109,-0.01853001,-0.00587259,0.04132995,0.06758101,0.01308735,-0.14334832,0.01476254,0.02749596,0.01315864,0.01317028,0.00342864,-0.00665330,0.00681370,0.04875856,0.02720820,0.00979415,0.00730633,0.01499182,0.00230640,-0.02534729,0.00783367,-0.01469799,0.00133743,0.00385597,0.00893194,0, 00:00:10.3
105,0.07014994,0.04225180,-0.00718274,-0.08775747,-0.04670471,0.00564727,-0.03976944,-0.02394289,0.00668533,-0.07755532,0.01565083,-0.09138962,-0.03394026,-0.01002115,-0.04690484,0.00293144,-0.05779133,0.01323822,0.02319722,0.04924439,-0.08985921,-0.13010873,-0.15446545,0.00899358,-0.01627840,-0.00649319,-0.00122613,-0.01916569,-0.00622283,0.04299689,0.06915895,0.01375973,-0.14343520,0.01480799,0.02791154,0.01275406,0.01300009,0.00335223,-0.00679180,0.00701363,0.05072799,0.02824591,0.01369740,0.00442157,0.01526769,0.00239339,-0.02598959,0.00783203,-0.01528858,0.00120335,-0.00072582,0.00589934,0, 00:00:10.5
106,0.07144908,0.04208531,-0.00877664,-0.08969321,-0.04767280,0.00590807,-0.04020301,-0.02298515,0.00792034,-0.07855877,0.01599193,-0.09147613,-0.03513306,-0.01076504,-0.04808132,0.00263349,-0.05848927,0.01291652,0.02463762,0.05184923,-0.09073026,-0.13068557,-0.15598920,0.00885094,-0.01656384,-0.00676135,-0.00120226,-0.01963512,-0.00664673,0.04492543,0.07124916,0.01456588,-0.14329378,0.01469771,0.02894767,0.01256749,0.01355362,0.00339979,-0.00648180,0.00698895,0.05274992,0.02919788,0.01743464,0.00191653,0.01573680,0.00244431,-0.02659861,0.00798038,-0.01600313,0.00128178,-0.00580315,0.00292113,0, 00:00:10.5
107,0.07288583,0.04208807,-0.00980672,-0.09144374,-0.04844849,0.00605818,-0.04084197,-0.02201196,0.00918440,-0.07950520,0.01631553,-0.09100012,-0.03603040,-0.01133284,-0.04888171,0.00249363,-0.05945447,0.01271123,0.02606043,0.05472880,-0.09132250,-0.13133481,-0.15666004,0.00860437,-0.01690816,-0.00691180,-0.00123040,-0.02001254,-0.00705373,0.04678373,0.07370435,0.01572036,-0.14309876,0.01484024,0.03018841,0.01265592,0.01504410,0.00359629,-0.00594310,0.00713040,0.05508655,0.02998846,0.02099328,-0.00045165,0.01629381,0.00245979,-0.02716689,0.00826439,-0.01674818,0.00134419,-0.01114208,-0.00040217,0, 00:00:10.6
108,0.07428224,0.04211763,-0.01061015,-0.09309798,-0.04918281,0.00603306,-0.04175619,-0.02138576,0.00986519,-0.08016697,0.01653530,-0.09040294,-0.03670310,-0.01165515,-0.04946113,0.00212553,-0.06047014,0.01233882,0.02721787,0.05790799,-0.09174827,-0.13184518,-0.15754646,0.00834884,-0.01718818,-0.00716960,-0.00128830,-0.02037265,-0.00756468,0.04894622,0.07622986,0.01622465,-0.14284268,0.01521812,0.03147131,0.01286961,0.01678823,0.00381369,-0.00532973,0.00732543,0.05723917,0.03058041,0.02379805,-0.00299947,0.01675200,0.00258134,-0.02763339,0.00866316,-0.01756793,0.00145418,-0.01623024,-0.00359938,0, 00:00:10.7
109,0.07576501,0.04242831,-0.01152670,-0.09436637,-0.04954659,0.00576153,-0.04268510,-0.02129458,0.01008280,-0.08102605,0.01635664,-0.08986665,-0.03721726,-0.01200654,-0.04973377,0.00126795,-0.06149548,0.01190281,0.02773699,0.06123571,-0.09252206,-0.13211244,-0.15873259,0.00796787,-0.01764479,-0.00754860,-0.00143784,-0.02076831,-0.00816719,0.05115562,0.07889311,0.01804343,-0.14263356,0.01556306,0.03286833,0.01303228,0.01852330,0.00396255,-0.00457327,0.00725537,0.05946905,0.03108031,0.02560611,-0.00517499,0.01726665,0.00280788,-0.02809332,0.00901140,-0.01843626,0.00171210,-0.02117517,-0.00657651,0, 00:00:10.8
110,0.07715179,0.04326369,-0.01159497,-0.09513911,-0.04927561,0.00539371,-0.04377970,-0.02132362,0.01019404,-0.08228382,0.01624996,-0.08971860,-0.03731274,-0.01235890,-0.04955043,0.00093309,-0.06270909,0.01152775,0.02828496,0.06436993,-0.09324720,-0.13207830,-0.15930445,0.00753183,-0.01810709,-0.00798241,-0.00163040,-0.02119272,-0.00868529,0.05339266,0.08155618,0.01841826,-0.14209029,0.01567737,0.03416549,0.01317918,0.02016855,0.00405800,-0.00378966,0.00737587,0.06156440,0.03159119,0.02717519,-0.00702053,0.01789693,0.00310074,-0.02858152,0.00930130,-0.01932643,0.00189164,-0.02565704,-0.00927489,0, 00:00:11.0
111,0.07837068,0.04430472,-0.01152005,-0.09556488,-0.04872999,0.00546688,-0.04473159,-0.02117919,0.01062308,-0.08352463,0.01632104,-0.08916534,-0.03708664,-0.01282418,-0.04932796,0.00043477,-0.06366060,0.01115753,0.02896449,0.06730244,-0.09426949,-0.13222200,-0.15914789,0.00700431,-0.01848326,-0.00844343,-0.00181754,-0.02164969,-0.00917551,0.05567573,0.08408710,0.01989112,-0.14154446,0.01594144,0.03536977,0.01331653,0.02156965,0.00405557,-0.00318516,0.00750784,0.06295484,0.03180071,0.02861549,-0.00812154,0.01851813,0.00331435,-0.02908901,0.00955201,-0.02021915,0.00207966,-0.02980638,-0.01102531,0, 00:00:11.0
112,0.07967415,0.04552320,-0.01137602,-0.09583005,-0.04795546,0.00544663,-0.04595932,-0.02105301,0.01101466,-0.08463267,0.01638960,-0.08923360,-0.03664960,-0.01347099,-0.04899510,0.00004412,-0.06470595,0.01083671,0.02922603,0.07014954,-0.09499106,-0.13278614,-0.16066073,0.00661103,-0.01882220,-0.00897017,-0.00206041,-0.02208976,-0.00967973,0.05792271,0.08644912,0.02113575,-0.14129838,0.01579094,0.03626453,0.01350407,0.02276860,0.00400913,-0.00264793,0.00740552,0.06384091,0.03175392,0.02940195,-0.00827615,0.01947414,0.00350744,-0.02966284,0.00977790,-0.02108713,0.00212303,-0.03242678,-0.01196267,0, 00:00:11.1
113,0.08126866,0.04738534,-0.01096034,-0.09574697,-0.04711504,0.00562438,-0.04693037,-0.02103625,0.01146087,-0.08548726,0.01659466,-0.08952393,-0.03566584,-0.01409665,-0.04868408,-0.00022842,-0.06564198,0.01057118,0.02932406,0.07270101,-0.09558763,-0.13363799,-0.16254929,0.00627803,-0.01903294,-0.00950373,-0.00233251,-0.02248267,-0.01013937,0.05952268,0.08857352,0.02171988,-0.14125936,0.01558471,0.03675229,0.01378866,0.02389035,0.00397325,-0.00198921,0.00746591,0.06473716,0.03161311,0.03017195,-0.00809670,0.02048202,0.00364315,-0.03020322,0.00995104,-0.02189320,0.00214891,-0.03414369,-0.01242899,0, 00:00:11.2
114,0.08264692,0.04934610,-0.01031518,-0.09574297,-0.04646748,0.00583139,-0.04749271,-0.02103133,0.01179353,-0.08642581,0.01701592,-0.09015413,-0.03457712,-0.01452681,-0.04850402,-0.00044075,-0.06620070,0.01021521,0.02928602,0.07507289,-0.09654478,-0.13426477,-0.16399287,0.00605390,-0.01935137,-0.01012152,-0.00256699,-0.02295090,-0.01058833,0.06140889,0.09066912,0.02334360,-0.14118102,0.01564432,0.03720560,0.01411010,0.02506638,0.00402279,-0.00150859,0.00758289,0.06586345,0.03156194,0.03114825,-0.00776912,0.02112346,0.00375940,-0.03072977,0.01016921,-0.02266158,0.00219023,-0.03564804,-0.01268397,0, 00:00:11.3
115,0.08364395,0.05041281,-0.01004158,-0.09568571,-0.04574713,0.00615034,-0.04801115,-0.02077143,0.01242998,-0.08759873,0.01756204,-0.09108827,-0.03396729,-0.01517940,-0.04858519,-0.00078134,-0.06665552,0.00967143,0.02936588,0.07724784,-0.09757541,-0.13486357,-0.16536032,0.00577548,-0.01965801,-0.01069366,-0.00277246,-0.02351164,-0.01104390,0.06311639,0.09250191,0.02509055,-0.14103250,0.01588248,0.03767285,0.01439517,0.02603621,0.00399840,-0.00109868,0.00783950,0.06699154,0.03141818,0.03191793,-0.00744821,0.02156397,0.00374248,-0.03127310,0.01043121,-0.02341832,0.00222908,-0.03714250,-0.01286123,0, 00:00:11.5
116,0.08449282,0.05033333,-0.01008238,-0.09558664,-0.04438547,0.00682900,-0.04824501,-0.01972030,0.01396389,-0.08893604,0.01762477,-0.09095958,-0.03383924,-0.01618012,-0.04839429,-0.00141446,-0.06734468,0.00906925,0.02988736,0.07885386,-0.09846720,-0.13562870,-0.16607551,0.00549000,-0.01976645,-0.01126789,-0.00302226,-0.02406338,-0.01142142,0.06468609,0.09390226,0.02611848,-0.14077210,0.01613200,0.03797160,0.01461548,0.02679820,0.00389919,-0.00056309,0.00801016,0.06791881,0.03118420,0.03218734,-0.00685572,0.02188037,0.00370884,-0.03178559,0.01066541,-0.02421637,0.00221497,-0.03865730,-0.01315849,0, 00:00:11.5
117,0.08563570,0.05060150,-0.00979919,-0.09507801,-0.04270147,0.00762515,-0.04825901,-0.01868454,0.01537671,-0.09021053,0.01816464,-0.08999920,-0.03367748,-0.01702135,-0.04823049,-0.00207664,-0.06769725,0.00849329,0.03047767,0.08040015,-0.09939022,-0.13626872,-0.16660799,0.00523469,-0.02008644,-0.01184945,-0.00328149,-0.02458248,-0.01181010,0.06591414,0.09531713,0.02578228,-0.14021182,0.01662470,0.03831977,0.01482637,0.02733278,0.00380464,0.00002948,0.00813976,0.06897414,0.03087961,0.03261345,-0.00611605,0.02217829,0.00364610,-0.03232010,0.01092169,-0.02501160,0.00221371,-0.04005087,-0.01316872,0, 00:00:11.6
118,0.08693012,0.05202090,-0.00928206,-0.09448548,-0.04142283,0.00848484,-0.04851228,-0.01897514,0.01555891,-0.09084957,0.01883597,-0.08987730,-0.03292895,-0.01749873,-0.04808424,-0.00239853,-0.06818940,0.00794550,0.03030110,0.08259557,-0.09992395,-0.13673644,-0.16700128,0.00491445,-0.02053126,-0.01244137,-0.00373605,-0.02525582,-0.01226728,0.06775665,0.09743399,0.02518603,-0.13956000,0.01698178,0.03874805,0.01501616,0.02777967,0.00371715,0.00042536,0.00821685,0.07035120,0.03062405,0.03283474,-0.00557552,0.02253902,0.00350017,-0.03292786,0.01118122,-0.02578880,0.00215835,-0.04114544,-0.01284550,0, 00:00:11.7
119,0.08805011,0.05405008,-0.00774559,-0.09393734,-0.04085298,0.00800189,-0.04959229,-0.02148061,0.01343563,-0.09096447,0.01899155,-0.08982399,-0.03164674,-0.01753914,-0.04780496,-0.00260625,-0.06980964,0.00779204,0.02917850,0.08548522,-0.10044657,-0.13684194,-0.16690968,0.00478869,-0.02097470,-0.01309244,-0.00417660,-0.02578087,-0.01278457,0.06901705,0.09959923,0.02548315,-0.13900194,0.01680866,0.03950516,0.01518385,0.02826811,0.00363987,0.00069189,0.00793493,0.07116663,0.03059828,0.03314297,-0.00516212,0.02302403,0.00338897,-0.03354190,0.01140327,-0.02651973,0.00225385,-0.04282447,-0.01342680,0, 00:00:11.8
120,0.08884025,0.05530595,-0.00633178,-0.09283406,-0.04041636,0.00544963,-0.05172754,-0.02487824,0.01021521,-0.09131810,0.01899282,-0.08972630,-0.03068121,-0.01709481,-0.04675575,-0.00315327,-0.07284227,0.00791951,0.02818432,0.08817147,-0.10084637,-0.13625640,-0.16628526,0.00472384,-0.02130061,-0.01370605,-0.00450077,-0.02624990,-0.01334472,0.06930583,0.10121971,0.02549324,-0.13845447,0.01635892,0.04024962,0.01536108,0.02902376,0.00358569,0.00118391,0.00759294,0.07111797,0.03033919,0.03372975,-0.00512010,0.02345812,0.00317426,-0.03417492,0.01159536,-0.02719359,0.00241537,-0.04500907,-0.01491535,0, 00:00:12.0
121,0.08959344,0.05642998,-0.00538139,-0.09172569,-0.04002418,0.00286960,-0.05374451,-0.02809264,0.00718498,-0.09187976,0.01879730,-0.08987629,-0.02996183,-0.01693014,-0.04565858,-0.00369574,-0.07569910,0.00809744,0.02728716,0.09053333,-0.10147966,-0.13554280,-0.16553105,0.00459425,-0.02180333,-0.01430628,-0.00487591,-0.02682805,-0.01387806,0.06945194,0.10267692,0.02520348,-0.13790004,0.01617941,0.04079589,0.01547582,0.02968483,0.00350350,0.00164975,0.00747108,0.07097847,0.03000088,0.03423319,-0.00550007,0.02384668,0.00291615,-0.03483801,0.01181778,-0.02785509,0.00245076,-0.04740656,-0.01670359,0, 00:00:12.0
122,0.09046096,0.05748331,-0.00477062,-0.09091886,-0.03953777,0.00093620,-0.05558175,-0.03106343,0.00454236,-0.09270854,0.01872740,-0.08937014,-0.02927722,-0.01678520,-0.04482133,-0.00412880,-0.07850169,0.00812569,0.02603636,0.09305705,-0.10232154,-0.13496614,-0.16517511,0.00431266,-0.02228947,-0.01492430,-0.00528479,-0.02747030,-0.01449859,0.06983105,0.10412215,0.02711372,-0.13726704,0.01605001,0.04145706,0.01547772,0.03020894,0.00331831,0.00202362,0.00748177,0.07113726,0.02975295,0.03479860,-0.00607936,0.02428278,0.00283977,-0.03553107,0.01197241,-0.02850484,0.00246753,-0.04996355,-0.01824962,0, 00:00:12.1
123,0.09136620,0.05832040,-0.00449854,-0.09022593,-0.03902915,-0.00084363,-0.05745925,-0.03371474,0.00225022,-0.09368092,0.01879933,-0.08918943,-0.02868041,-0.01670130,-0.04412688,-0.00455967,-0.08103282,0.00804882,0.02479537,0.09560657,-0.10336461,-0.13432230,-0.16504973,0.00412463,-0.02278124,-0.01555619,-0.00568176,-0.02807476,-0.01513029,0.07018790,0.10557231,0.02771211,-0.13667099,0.01583528,0.04229566,0.01527162,0.03054960,0.00304385,0.00222780,0.00715317,0.07125823,0.02942851,0.03599334,-0.00662535,0.02490603,0.00280176,-0.03626596,0.01210331,-0.02911187,0.00245764,-0.05254615,-0.01977933,0, 00:00:12.2
124,0.09227349,0.05912542,-0.00362319,-0.08923046,-0.03845867,-0.00287715,-0.05921618,-0.03642876,-0.00017191,-0.09468763,0.01871109,-0.08897620,-0.02818161,-0.01658632,-0.04303418,-0.00517820,-0.08350999,0.00811911,0.02351621,0.09804589,-0.10465630,-0.13383052,-0.16477011,0.00392550,-0.02318491,-0.01614095,-0.00609072,-0.02857887,-0.01576587,0.07051166,0.10715485,0.02916655,-0.13603203,0.01562528,0.04315379,0.01506894,0.03083402,0.00283775,0.00261363,0.00670827,0.07141660,0.02906507,0.03672049,-0.00710150,0.02565645,0.00279490,-0.03702595,0.01232245,-0.02971106,0.00254989,-0.05506067,-0.02136420,0, 00:00:12.3
125,0.09336998,0.06000940,-0.00286820,-0.08824331,-0.03785562,-0.00465839,-0.06096730,-0.03912346,-0.00261514,-0.09538200,0.01892924,-0.08821897,-0.02770060,-0.01637623,-0.04163145,-0.00523039,-0.08607754,0.00838251,0.02247233,0.10053331,-0.10564130,-0.13311067,-0.16465928,0.00363223,-0.02377842,-0.01671810,-0.00647443,-0.02909476,-0.01637869,0.07113811,0.10874723,0.03031523,-0.13539827,0.01536446,0.04410941,0.01497502,0.03105441,0.00272127,0.00318215,0.00646079,0.07141440,0.02873426,0.03710359,-0.00750810,0.02645672,0.00288688,-0.03771890,0.01260559,-0.03027439,0.00266902,-0.05729340,-0.02281248,0, 00:00:12.5
126,0.09458964,0.06107682,-0.00214554,-0.08726933,-0.03723626,-0.00613420,-0.06268616,-0.04170489,-0.00491855,-0.09610508,0.01914576,-0.08825462,-0.02724869,-0.01620993,-0.04019689,-0.00542718,-0.08846305,0.00885141,0.02184817,0.10296818,-0.10678794,-0.13249095,-0.16475068,0.00351864,-0.02427613,-0.01730205,-0.00684578,-0.02963450,-0.01690542,0.07156290,0.11041100,0.03111289,-0.13480982,0.01496925,0.04524648,0.01498295,0.03132677,0.00268650,0.00368892,0.00631976,0.07128106,0.02832110,0.03761036,-0.00778884,0.02732133,0.00301874,-0.03838926,0.01293280,-0.03077030,0.00279199,-0.05921623,-0.02429697,0, 00:00:12.5
127,0.09579416,0.06218440,-0.00151120,-0.08648484,-0.03663781,-0.00787460,-0.06417128,-0.04400665,-0.00694033,-0.09688176,0.01925158,-0.08759428,-0.02679992,-0.01612232,-0.03908281,-0.00578307,-0.09097476,0.00922863,0.02140067,0.10525551,-0.10763714,-0.13190661,-0.16481589,0.00338324,-0.02474766,-0.01782330,-0.00713055,-0.03019055,-0.01738185,0.07217536,0.11191648,0.03155140,-0.13434669,0.01456540,0.04627332,0.01496933,0.03169093,0.00268233,0.00407010,0.00626922,0.07107443,0.02789530,0.03833260,-0.00816533,0.02808081,0.00312341,-0.03901767,0.01334364,-0.03119570,0.00296366,-0.06137350,-0.02575233,0, 00:00:12.6
128,0.09685333,0.06260560,-0.00143895,-0.08594539,-0.03616939,-0.00931746,-0.06560732,-0.04596797,-0.00816102,-0.09798093,0.01932400,-0.08691175,-0.02659108,-0.01620609,-0.03821988,-0.00613257,-0.09334134,0.00945946,0.02088165,0.10755913,-0.10822419,-0.13137870,-0.16486128,0.00328643,-0.02506696,-0.01840530,-0.00751308,-0.03073035,-0.01790221,0.07276857,0.11345836,0.03252408,-0.13385229,0.01455351,0.04728495,0.01481798,0.03207479,0.00266332,0.00474868,0.00621652,0.07110375,0.02747152,0.03883555,-0.00862635,0.02871751,0.00321238,-0.03965303,0.01378287,-0.03163052,0.00299881,-0.06375822,-0.02733342,0, 00:00:12.7
129,0.09792046,0.06282838,-0.00143779,-0.08537266,-0.03574932,-0.01079761,-0.06712059,-0.04783640,-0.00920910,-0.09927382,0.01923900,-0.08684368,-0.02659016,-0.01633111,-0.03736904,-0.00647223,-0.09577295,0.00966033,0.02061111,0.10984280,-0.10934408,-0.13081093,-0.16480227,0.00305034,-0.02561548,-0.01908778,-0.00790660,-0.03126961,-0.01846903,0.07338864,0.11497469,0.03308001,-0.13334809,0.01458507,0.04822625,0.01472295,0.03241455,0.00263477,0.00522976,0.00616261,0.07129847,0.02710650,0.03939677,-0.00886537,0.02939056,0.00325022,-0.04027992,0.01413982,-0.03210739,0.00313083,-0.06601784,-0.02912322,0, 00:00:12.8
130,0.09893294,0.06289896,-0.00151790,-0.08483014,-0.03528067,-0.01243321,-0.06864092,-0.04960238,-0.01016308,-0.10010047,0.01950306,-0.08629096,-0.02663810,-0.01630124,-0.03645888,-0.00672016,-0.09819935,0.00989514,0.02028962,0.11224513,-0.11028049,-0.13028833,-0.16447546,0.00279145,-0.02608394,-0.01975287,-0.00833614,-0.03180793,-0.01895622,0.07392459,0.11645018,0.03203699,-0.13268450,0.01441665,0.04911423,0.01462035,0.03265969,0.00252448,0.00561282,0.00612090,0.07160527,0.02659899,0.04001002,-0.00882819,0.03007193,0.00325933,-0.04089426,0.01452400,-0.03251321,0.00328884,-0.06792597,-0.03062321,0, 00:00:13.0
131,0.10037198,0.06308077,-0.00197147,-0.08437669,-0.03452357,-0.01355297,-0.06998533,-0.05096861,-0.01091412,-0.10093636,0.01953749,-0.08562943,-0.02670544,-0.01656322,-0.03562062,-0.00678800,-0.10031679,0.01003747,0.01984808,0.11471245,-0.11069180,-0.12947999,-0.16379115,0.00258213,-0.02645844,-0.02042536,-0.00868351,-0.03234922,-0.01938135,0.07489707,0.11808123,0.03350235,-0.13215561,0.01438954,0.05019313,0.01451732,0.03291800,0.00241895,0.00586052,0.00616256,0.07222342,0.02573722,0.03979289,-0.00804453,0.03068339,0.00344636,-0.04148401,0.01488538,-0.03290400,0.00345323,-0.06902136,-0.03111870,0, 00:00:13.0
132,0.10201198,0.06391201,-0.00168262,-0.08412968,-0.03290071,-0.01412484,-0.07111962,-0.05261479,-0.01114545,-0.10185918,0.01969048,-0.08462256,-0.02620579,-0.01713250,-0.03481894,-0.00708496,-0.10242539,0.01031862,0.01902397,0.11723131,-0.11096152,-0.12920579,-0.16248609,0.00235398,-0.02687413,-0.02105371,-0.00905314,-0.03269399,-0.01985451,0.07638784,0.11925710,0.03548691,-0.13177972,0.01486669,0.05189149,0.01479894,0.03331902,0.00239568,0.00657703,0.00625109,0.07255071,0.02439569,0.03827400,-0.00649801,0.03039993,0.00378014,-0.04191641,0.01536648,-0.03338915,0.00382277,-0.06965430,-0.03098535,0, 00:00:13.1
133,0.10455827,0.06493331,-0.00234070,-0.08576398,-0.03075428,-0.01435230,-0.07286704,-0.05512649,-0.01018972,-0.10380686,0.02028705,-0.08158749,-0.02558233,-0.01856265,-0.03372384,-0.00760026,-0.10482667,0.01120579,0.01899933,0.11905976,-0.11224440,-0.12913629,-0.16097841,0.00189377,-0.02735231,-0.02136875,-0.00953260,-0.03262215,-0.02034668,0.07748157,0.11974853,0.03427165,-0.13074243,0.01689521,0.05322072,0.01632690,0.03421796,0.00254780,0.00831343,0.00709052,0.07193027,0.02270486,0.03592580,-0.00494238,0.02699935,0.00372413,-0.04179471,0.01633723,-0.03387050,0.00449547,-0.07026564,-0.03092016,0, 00:00:13.2
134,0.11037336,0.06947365,-0.00122185,-0.08797978,-0.02748053,-0.01109500,-0.07157243,-0.05746246,-0.00691804,-0.10519179,0.02098062,-0.07661837,-0.02331660,-0.02112895,-0.03188713,-0.00844104,-0.10361817,0.01320908,0.02066053,0.12159997,-0.11244369,-0.13113633,-0.16146845,0.00159331,-0.02787236,-0.02154294,-0.01018818,-0.03218590,-0.02088830,0.07890377,0.12225958,0.03185950,-0.13168752,0.02004490,0.05330843,0.01919233,0.03529554,0.00279338,0.01054147,0.00938411,0.07320025,0.02105847,0.03303517,-0.00312209,0.02171561,0.00364185,-0.04096393,0.01762026,-0.03433001,0.00531107,-0.07124326,-0.03077653,0, 00:00:13.3
135,0.12324127,0.08292691,0.00348292,-0.09037418,-0.02387930,-0.00635687,-0.06654728,-0.06154318,-0.00443432,-0.10570145,0.02174928,-0.07282678,-0.01684950,-0.02586981,-0.02902032,-0.01082427,-0.10018594,0.01665637,0.02107896,0.12341685,-0.11177292,-0.13751061,-0.16575074,0.00156878,-0.02842773,-0.02212804,-0.01139899,-0.03140004,-0.02129833,0.07963902,0.12556626,0.02646185,-0.13645037,0.02333848,0.05293141,0.02246594,0.03612486,0.00295690,0.01338212,0.01225395,0.07480754,0.01933658,0.02987271,-0.00117070,0.01609112,0.00401999,-0.03985296,0.01874415,-0.03490246,0.00619730,-0.07243172,-0.03047517,0, 00:00:13.5
136,0.14269756,0.10119357,0.00645741,-0.09717002,-0.02323171,-0.01160985,-0.06999359,-0.06535123,-0.00243483,-0.10597002,0.02343192,-0.06630416,-0.00926107,-0.03339861,-0.02798462,-0.01435491,-0.10684909,0.02098459,0.02130665,0.12368576,-0.11191305,-0.14625609,-0.17020738,0.00188393,-0.02879641,-0.02300778,-0.01314216,-0.03026602,-0.02153483,0.07890010,0.12789574,0.01977282,-0.14238943,0.02654636,0.05251269,0.02580449,0.03665994,0.00319448,0.01651548,0.01517338,0.07575673,0.01752485,0.02692987,0.00107531,0.01078249,0.00473085,-0.03858086,0.02005436,-0.03543077,0.00695687,-0.07359373,-0.02954455,0, 00:00:13.5
137,0.16250505,0.11532002,0.00355465,-0.10719988,-0.02502606,-0.01966414,-0.07652252,-0.06962635,-0.00155044,-0.10716214,0.02469835,-0.05997532,-0.00608800,-0.04205302,-0.02883466,-0.01839475,-0.11609667,0.02578028,0.02102523,0.12413872,-0.11314218,-0.15655896,-0.17625697,0.00255228,-0.02911406,-0.02390714,-0.01495350,-0.02885681,-0.02156112,0.07828528,0.13071187,0.01360620,-0.14918748,0.02980209,0.05210114,0.02917769,0.03717784,0.00353206,0.01994560,0.01811233,0.07712583,0.01563976,0.02416184,0.00335397,0.00585374,0.00550175,-0.03723241,0.02153225,-0.03589524,0.00777884,-0.07466844,-0.02817508,0, 00:00:13.6
138,0.18289101,0.12784888,-0.00211025,-0.12120054,-0.02974989,-0.02852520,-0.08376004,-0.07384747,-0.00088003,-0.10821037,0.02542112,-0.05449407,-0.00522759,-0.05142700,-0.03209330,-0.02287116,-0.12606831,0.03074272,0.02077076,0.12530883,-0.11438809,-0.16820630,-0.18292423,0.00331291,-0.02939467,-0.02474739,-0.01681619,-0.02722207,-0.02143721,0.07800454,0.13440190,0.00688376,-0.15680297,0.03287406,0.05197142,0.03269844,0.03774003,0.00391487,0.02369798,0.02125350,0.07915624,0.01390262,0.02114860,0.00600687,0.00124398,0.00639508,-0.03586280,0.02309260,-0.03630261,0.00874315,-0.07534484,-0.02635942,0, 00:00:13.7
139,0.20576777,0.14324670,-0.00669379,-0.13807152,-0.03657684,-0.03815278,-0.09015322,-0.07793496,-0.00065748,-0.11035389,0.02729116,-0.04875525,-0.00239285,-0.06148218,-0.03662295,-0.02740145,-0.13577929,0.03642284,0.02067683,0.12617925,-0.11675205,-0.18173771,-0.19013107,0.00412035,-0.02963136,-0.02530077,-0.01846486,-0.02520430,-0.02102620,0.07758726,0.13838056,-0.00010530,-0.16495703,0.03551366,0.05186065,0.03637094,0.03846480,0.00441109,0.02768891,0.02456932,0.08110750,0.01215980,0.01813651,0.00846300,-0.00319184,0.00738044,-0.03442412,0.02482444,-0.03660224,0.00975505,-0.07565593,-0.02425603,0, 00:00:13.8
140,0.23192416,0.16036825,-0.01100660,-0.15606816,-0.04434106,-0.04913308,-0.09641629,-0.08140383,-0.00034550,-0.11364572,0.03033889,-0.04340708,0.00236916,-0.07234518,-0.04159644,-0.03213074,-0.14591388,0.04265001,0.02065255,0.12772463,-0.12038421,-0.19571498,-0.19683160,0.00506097,-0.02982214,-0.02551271,-0.01945785,-0.02275856,-0.02023325,0.07775839,0.14340684,-0.00792671,-0.17313132,0.03799704,0.05151298,0.03986169,0.03955818,0.00501802,0.03220521,0.02813105,0.08390883,0.01037386,0.01551874,0.01071003,-0.00746840,0.00826479,-0.03289975,0.02681970,-0.03683738,0.01074711,-0.07602005,-0.02190333,0, 00:00:14.0
141,0.25899848,0.17664656,-0.01630683,-0.17465845,-0.05245012,-0.06035449,-0.10287803,-0.08421349,0.00047247,-0.11669953,0.03339368,-0.03699328,0.00626638,-0.08355102,-0.04718530,-0.03666042,-0.15648265,0.04901511,0.02088777,0.12933588,-0.12416591,-0.20968826,-0.20402057,0.00597378,-0.03009811,-0.02550411,-0.02016981,-0.02012578,-0.01927639,0.07796244,0.14842556,-0.01611228,-0.18158524,0.04030482,0.05083162,0.04325027,0.04069997,0.00556986,0.03702005,0.03198372,0.08681150,0.00858087,0.01305547,0.01241915,-0.01196625,0.00894659,-0.03145633,0.02876073,-0.03707773,0.01161419,-0.07711815,-0.01916425,0, 00:00:14.0
142,0.28581002,0.19317757,-0.02159136,-0.19313505,-0.06039185,-0.07183556,-0.10918543,-0.08559098,0.00268548,-0.12006266,0.03645035,-0.03126949,0.01034705,-0.09493972,-0.05273633,-0.04112951,-0.16719417,0.05548865,0.02200865,0.13031358,-0.12737565,-0.22386713,-0.21147349,0.00702205,-0.03019980,-0.02546243,-0.02093326,-0.01738386,-0.01819230,0.07812413,0.15243025,-0.02467420,-0.19010983,0.04249391,0.04999645,0.04672815,0.04182982,0.00605256,0.04193694,0.03617297,0.08900639,0.00670416,0.01071605,0.01416419,-0.01639728,0.00964469,-0.03012658,0.03049253,-0.03737829,0.01252389,-0.07835043,-0.01611390,0, 00:00:14.1
143,0.31283766,0.21122263,-0.02685872,-0.21143547,-0.06813898,-0.08260899,-0.11423641,-0.08573598,0.00592467,-0.12228176,0.03955932,-0.02509912,0.01504122,-0.10651245,-0.05786188,-0.04584552,-0.17737922,0.06203567,0.02363420,0.13090649,-0.13031627,-0.23910026,-0.21980098,0.00798179,-0.03036782,-0.02539133,-0.02164598,-0.01444572,-0.01699875,0.07821432,0.15643625,-0.03353431,-0.19903933,0.04484700,0.04934329,0.05029080,0.04306866,0.00649635,0.04696795,0.04046367,0.09145000,0.00502338,0.00852980,0.01584927,-0.02061350,0.01024315,-0.02875886,0.03225576,-0.03763707,0.01352820,-0.07954692,-0.01309017,0, 00:00:14.2
144,0.33921418,0.23046957,-0.03167032,-0.23013201,-0.07614991,-0.09188016,-0.11670481,-0.08569888,0.00976839,-0.12390810,0.04166177,-0.01818910,0.02050294,-0.11804304,-0.06332558,-0.05063231,-0.18514222,0.06892857,0.02535979,0.13235745,-0.13269027,-0.25454703,-0.22785194,0.00883154,-0.03064233,-0.02514108,-0.02228751,-0.01130727,-0.01569316,0.07878081,0.16155590,-0.04200221,-0.20802410,0.04733152,0.04862738,0.05399300,0.04444870,0.00699807,0.05226468,0.04441782,0.09435108,0.00344247,0.00603097,0.01763102,-0.02460735,0.01085867,-0.02733306,0.03423652,-0.03786208,0.01453667,-0.08059913,-0.00976423,0, 00:00:14.3
145,0.36617202,0.25145277,-0.03503126,-0.24948578,-0.08454883,-0.10163033,-0.11840042,-0.08500605,0.01445238,-0.12548901,0.04379845,-0.01024991,0.02725523,-0.12967743,-0.06916481,-0.05597550,-0.19248262,0.07640485,0.02819700,0.13403867,-0.13496238,-0.26907650,-0.23510589,0.00968810,-0.03095753,-0.02525152,-0.02343652,-0.00783739,-0.01421705,0.07942452,0.16707334,-0.04955555,-0.21670401,0.04967713,0.04818824,0.05780989,0.04555593,0.00755199,0.05790050,0.04865117,0.09720807,0.00192967,0.00329211,0.01955734,-0.02839482,0.01148606,-0.02580720,0.03637067,-0.03796630,0.01557978,-0.08084610,-0.00613846,0, 00:00:14.5
146,0.39463067,0.27454165,-0.03775750,-0.26976821,-0.09337199,-0.11490050,-0.12210411,-0.08282577,0.02176278,-0.12598069,0.04611345,-0.00155419,0.03522788,-0.14115110,-0.07545689,-0.06174118,-0.20243794,0.08503489,0.03394454,0.13495368,-0.13563275,-0.28308859,-0.24297081,0.01053967,-0.03104631,-0.02553464,-0.02476388,-0.00377531,-0.01202655,0.07812957,0.17242940,-0.05794733,-0.22533381,0.05171819,0.04765434,0.06176676,0.04645936,0.00823201,0.06405555,0.05322075,0.09898534,0.00064514,0.00085472,0.02129020,-0.03215146,0.01202442,-0.02413356,0.03872528,-0.03793932,0.01665484,-0.08024901,-0.00281044,0, 00:00:14.5
147,0.42419264,0.29884750,-0.03959268,-0.29020849,-0.10250802,-0.13035750,-0.12667559,-0.08054627,0.03051151,-0.12458341,0.04848059,0.00790046,0.04390806,-0.15256312,-0.08163182,-0.06783983,-0.21379457,0.09449252,0.04075318,0.13440318,-0.13454264,-0.29666758,-0.25040922,0.01132335,-0.03093919,-0.02555127,-0.02590230,0.00097612,-0.00890886,0.07423915,0.17641951,-0.06587146,-0.23429170,0.05385442,0.04672614,0.06574566,0.04746757,0.00902961,0.07103322,0.05797178,0.09874602,-0.00027159,-0.00155712,0.02250582,-0.03601711,0.01260708,-0.02239628,0.04119730,-0.03782441,0.01773996,-0.07949756,0.00056228,0, 00:00:14.6
148,0.45374453,0.32364881,-0.04101055,-0.31080061,-0.11178423,-0.14655209,-0.13215752,-0.07848186,0.03858724,-0.12366450,0.05091024,0.01789472,0.05308341,-0.16384989,-0.08771170,-0.07400271,-0.22627030,0.10433523,0.04743136,0.13503006,-0.13384277,-0.30889624,-0.25795108,0.01199829,-0.03091275,-0.02562986,-0.02732137,0.00612589,-0.00516545,0.07106729,0.18140084,-0.07180163,-0.24286067,0.05570140,0.04570302,0.06968570,0.04824372,0.00979776,0.07865848,0.06261028,0.09937783,-0.00100228,-0.00390868,0.02364991,-0.03983145,0.01314313,-0.02063885,0.04367761,-0.03773608,0.01904459,-0.07845324,0.00391064,0, 00:00:14.7
149,0.48336858,0.34908012,-0.04179487,-0.33151656,-0.12104250,-0.16309573,-0.13752498,-0.07731573,0.04528565,-0.12367384,0.05320388,0.02710517,0.06275833,-0.17505416,-0.09347671,-0.07970855,-0.23897351,0.11478830,0.05352667,0.13697971,-0.13352913,-0.32071549,-0.26533207,0.01271154,-0.03098144,-0.02573575,-0.02886289,0.01183026,-0.00084497,0.06897517,0.18794747,-0.07823033,-0.25124568,0.05749869,0.04477364,0.07373733,0.04884291,0.01060553,0.08677930,0.06748486,0.10144274,-0.00175757,-0.00634054,0.02528364,-0.04343335,0.01373045,-0.01882934,0.04622360,-0.03765635,0.02037297,-0.07694168,0.00724063,0, 00:00:14.8
150,0.51338410,0.37490836,-0.04255771,-0.35223451,-0.13031730,-0.18046293,-0.14357045,-0.07689442,0.05093511,-0.12394630,0.05515685,0.03633857,0.07266932,-0.18609941,-0.09907188,-0.08566830,-0.25215450,0.12561193,0.05925385,0.13992764,-0.13344988,-0.33223835,-0.27211791,0.01344749,-0.03113095,-0.02580732,-0.03035753,0.01776723,0.00378343,0.06735015,0.19540606,-0.08501437,-0.25956100,0.05907199,0.04361969,0.07780170,0.04947791,0.01140287,0.09525543,0.07203725,0.10402681,-0.00246299,-0.00904317,0.02698630,-0.04692738,0.01440030,-0.01694407,0.04886094,-0.03754250,0.02162504,-0.07501647,0.01061012,0, 00:00:15.0
151,0.54352963,0.40026554,-0.04321049,-0.37291041,-0.13968508,-0.19825394,-0.15003419,-0.07608256,0.05683237,-0.12324874,0.05713981,0.04641217,0.08223589,-0.19688267,-0.10467029,-0.09181748,-0.26559925,0.13670905,0.06514180,0.14351487,-0.13235457,-0.34340301,-0.27920079,0.01407454,-0.03122483,-0.02590096,-0.03184795,0.02381956,0.00856505,0.06588344,0.20351580,-0.09037580,-0.26788759,0.06058107,0.04260567,0.08183666,0.05007804,0.01218587,0.10377890,0.07677456,0.10692757,-0.00298044,-0.01167366,0.02911038,-0.05027510,0.01511039,-0.01510294,0.05146604,-0.03737899,0.02285260,-0.07250065,0.01407578,0, 00:00:15.0
152,0.57375622,0.42535067,-0.04443368,-0.39375874,-0.14929569,-0.21669631,-0.15679106,-0.07433219,0.06334488,-0.12273679,0.05929275,0.05582952,0.09127184,-0.20737721,-0.11026593,-0.09794506,-0.27929181,0.14822903,0.07220519,0.14740826,-0.13159923,-0.35417596,-0.28595659,0.01486637,-0.03114549,-0.02597326,-0.03333946,0.03019855,0.01367765,0.06462183,0.21224050,-0.09572075,-0.27582434,0.06205848,0.04160716,0.08581826,0.05071308,0.01306096,0.11251460,0.08129317,0.11025155,-0.00343656,-0.01422375,0.03176660,-0.05354626,0.01577950,-0.01327345,0.05403513,-0.03717850,0.02409381,-0.06911105,0.01781180,0, 00:00:15.1
153,0.60397929,0.45072442,-0.04553619,-0.41471121,-0.15921214,-0.23517118,-0.16360280,-0.07283626,0.06939692,-0.12252188,0.06132244,0.06511460,0.10037769,-0.21796618,-0.11606959,-0.10395627,-0.29308352,0.15992765,0.07913136,0.15158059,-0.13122566,-0.36456057,-0.29269263,0.01561122,-0.03118590,-0.02607214,-0.03481355,0.03668959,0.01900902,0.06347024,0.22117101,-0.10028014,-0.28370523,0.06355841,0.04031225,0.08980274,0.05132966,0.01395598,0.12136178,0.08604500,0.11391907,-0.00396849,-0.01719137,0.03447393,-0.05697721,0.01644553,-0.01142966,0.05662588,-0.03693809,0.02526077,-0.06553397,0.02144802,0, 00:00:15.2
154,0.63405800,0.47568303,-0.04693151,-0.43568653,-0.16906491,-0.25315168,-0.17033786,-0.07203407,0.07496004,-0.12233040,0.06339269,0.07602026,0.10924559,-0.22867092,-0.12205029,-0.11006272,-0.30646390,0.17155492,0.08427348,0.15543509,-0.13115333,-0.37525108,-0.29951528,0.01641165,-0.03123350,-0.02617806,-0.03632263,0.04313417,0.02437733,0.06212147,0.22935236,-0.10507666,-0.29183659,0.06527367,0.03903766,0.09371310,0.05184809,0.01472750,0.13011050,0.09068401,0.11725994,-0.00462519,-0.02017717,0.03697901,-0.06053865,0.01711443,-0.00965132,0.05913392,-0.03676300,0.02638589,-0.06224586,0.02473008,0, 00:00:15.3
155,0.66361535,0.50023049,-0.04869333,-0.45637178,-0.17882524,-0.26995209,-0.17613009,-0.07080582,0.08070008,-0.12248135,0.06527326,0.08621436,0.11765140,-0.23944214,-0.12819019,-0.11615773,-0.31884444,0.18320096,0.08867205,0.15878460,-0.13157110,-0.38628113,-0.30632427,0.01711419,-0.03119372,-0.02626069,-0.03785010,0.04941269,0.02975659,0.06003990,0.23661661,-0.10972093,-0.30004403,0.06704709,0.03778004,0.09761979,0.05228010,0.01535823,0.13851418,0.09513260,0.11974618,-0.00506559,-0.02305195,0.04005329,-0.06395847,0.01789683,-0.00795337,0.06148983,-0.03662414,0.02753462,-0.05882077,0.02809463,0, 00:00:15.5
156,0.69305992,0.52426314,-0.05066050,-0.47674653,-0.18851918,-0.28585589,-0.18134959,-0.06978303,0.08515649,-0.12233084,0.06676821,0.09545918,0.12537578,-0.25046206,-0.13456175,-0.12220034,-0.33026129,0.19488989,0.09169989,0.16101883,-0.13207908,-0.39750957,-0.31222054,0.01807166,-0.03097962,-0.02641683,-0.03932654,0.05548224,0.03516052,0.05716672,0.24288106,-0.11418823,-0.30804259,0.06870537,0.03604222,0.10150542,0.05214382,0.01594826,0.14659482,0.09961442,0.12149537,-0.00557035,-0.02544528,0.04312898,-0.06723677,0.01884889,-0.00629192,0.06359840,-0.03643305,0.02848966,-0.05489599,0.03186528,0, 00:00:15.5
157,0.72222281,0.54770660,-0.05334080,-0.49745527,-0.19835851,-0.30076709,-0.18567273,-0.06969656,0.08823957,-0.12254816,0.06839186,0.10518175,0.13254133,-0.26187560,-0.14149967,-0.12825932,-0.34100118,0.20645146,0.09309106,0.16189328,-0.13275488,-0.40873086,-0.31878987,0.01922845,-0.03069105,-0.02659084,-0.04055667,0.06144040,0.04058602,0.05372505,0.24791434,-0.12035307,-0.31657711,0.07033663,0.03428262,0.10537840,0.05134307,0.01660993,0.15432544,0.10377930,0.12194391,-0.00647939,-0.02792781,0.04617605,-0.07050209,0.01996529,-0.00461815,0.06545713,-0.03621704,0.02943183,-0.05061356,0.03668122,0, 00:00:15.6
158,0.75107628,0.57098299,-0.05659528,-0.51825762,-0.20809872,-0.31429401,-0.18892767,-0.06950564,0.09118543,-0.12276783,0.07000735,0.11399569,0.13910457,-0.27352574,-0.14890404,-0.13412090,-0.35083067,0.21795131,0.09362771,0.16230506,-0.13331044,-0.41923624,-0.32536197,0.02050827,-0.03028876,-0.02679689,-0.04171457,0.06725507,0.04609154,0.05028294,0.25265014,-0.12486111,-0.32524946,0.07174459,0.03247353,0.10955060,0.05054323,0.01734450,0.16204919,0.10762582,0.12209363,-0.00742112,-0.03114993,0.04973239,-0.07347622,0.02128551,-0.00304649,0.06692750,-0.03598718,0.03032872,-0.04646187,0.04196411,0, 00:00:15.7
159,0.77944899,0.59371448,-0.06007720,-0.53935558,-0.21815899,-0.32663471,-0.19170389,-0.06903103,0.09418865,-0.12312295,0.07225438,0.12225860,0.14536838,-0.28521064,-0.15696955,-0.13952883,-0.36009008,0.22928478,0.09428646,0.16271104,-0.13392952,-0.42967829,-0.33212817,0.02188245,-0.02973436,-0.02702883,-0.04279597,0.07292773,0.05160615,0.04696442,0.25721374,-0.13004814,-0.33403653,0.07326520,0.03053603,0.11383017,0.04973633,0.01811974,0.16937998,0.11142787,0.12237532,-0.00836064,-0.03396920,0.05320431,-0.07652437,0.02257848,-0.00152089,0.06838062,-0.03574903,0.03118877,-0.04295792,0.04688683,0, 00:00:15.8
160,0.80753863,0.61649066,-0.06358669,-0.56066477,-0.22855426,-0.33918568,-0.19467923,-0.06890314,0.09649923,-0.12321414,0.07455719,0.13060315,0.15196989,-0.29682621,-0.16521972,-0.14497043,-0.36934173,0.24051611,0.09477024,0.16313727,-0.13408300,-0.44061655,-0.33934298,0.02335175,-0.02921718,-0.02724551,-0.04389890,0.07851966,0.05697239,0.04312390,0.26171279,-0.13354857,-0.34355018,0.07504866,0.02865260,0.11794155,0.04884768,0.01887015,0.17651244,0.11523923,0.12268325,-0.00939596,-0.03650048,0.05600546,-0.07966884,0.02370452,-0.00002337,0.06985009,-0.03552022,0.03191638,-0.03990176,0.05124123,0, 00:00:16.0
161,0.83562827,0.63911873,-0.06683877,-0.58170402,-0.23914213,-0.35251760,-0.19769400,-0.06923375,0.09794182,-0.12271561,0.07661647,0.13850105,0.15868931,-0.30813190,-0.17308682,-0.15038931,-0.37892851,0.25177982,0.09531041,0.16341379,-0.13381396,-0.45115870,-0.34718266,0.02475146,-0.02882598,-0.02737422,-0.04518479,0.08405340,0.06231932,0.03899929,0.26616442,-0.13678984,-0.35287943,0.07676195,0.02692281,0.12191432,0.04800234,0.01956131,0.18349068,0.11890707,0.12315461,-0.01053397,-0.03905438,0.05810636,-0.08274306,0.02479570,0.00142718,0.07124051,-0.03531209,0.03276222,-0.03667822,0.05481541,0, 00:00:16.0
162,0.86364275,0.66198975,-0.06977078,-0.60264653,-0.24995250,-0.36641121,-0.20045251,-0.06959862,0.09914273,-0.12212009,0.07875489,0.14649236,0.16564828,-0.31936795,-0.18077469,-0.15564576,-0.38865185,0.26313019,0.09610227,0.16401136,-0.13378623,-0.46158594,-0.35453993,0.02610724,-0.02849209,-0.02742554,-0.04648914,0.08962616,0.06773365,0.03492264,0.27048838,-0.14006846,-0.36197537,0.07837583,0.02527306,0.12581044,0.04726396,0.02021441,0.19060329,0.12251256,0.12386163,-0.01131366,-0.04068339,0.05943796,-0.08586722,0.02586208,0.00289025,0.07257921,-0.03508670,0.03373177,-0.03445295,0.05720425,0, 00:00:16.1
163,0.89150643,0.68432629,-0.07275669,-0.62382358,-0.26089260,-0.38035622,-0.20330180,-0.06989151,0.10056653,-0.12182818,0.08095172,0.15410410,0.17245868,-0.33062732,-0.18852718,-0.16093574,-0.39825457,0.27451044,0.09703045,0.16481175,-0.13367458,-0.47210726,-0.36161941,0.02741035,-0.02822630,-0.02742294,-0.04768951,0.09523125,0.07314178,0.03106876,0.27510339,-0.14343797,-0.37110144,0.08005711,0.02379621,0.12962177,0.04658781,0.02089119,0.19777484,0.12618880,0.12454132,-0.01194919,-0.04183643,0.06024295,-0.08889394,0.02692794,0.00427630,0.07393418,-0.03488029,0.03465169,-0.03331526,0.05890639,0, 00:00:16.2
164,0.91969806,0.70673919,-0.07649084,-0.64499509,-0.27172658,-0.39423767,-0.20623951,-0.07013380,0.10216402,-0.12154960,0.08290391,0.16238540,0.17913567,-0.34194347,-0.19624844,-0.16626652,-0.40800557,0.28593025,0.09794209,0.16571985,-0.13311024,-0.48248586,-0.36914188,0.02875368,-0.02799087,-0.02736446,-0.04886051,0.10086562,0.07857305,0.02706745,0.27972212,-0.14675310,-0.38003138,0.08160873,0.02234963,0.13326856,0.04592149,0.02158908,0.20489220,0.12990122,0.12480609,-0.01257200,-0.04279293,0.06114397,-0.09184952,0.02804673,0.00560358,0.07532986,-0.03463663,0.03560017,-0.03289014,0.06042399,0, 00:00:16.3
165,0.94823164,0.73009193,-0.07970002,-0.66602486,-0.28248629,-0.40794882,-0.20916523,-0.07059343,0.10367025,-0.12121930,0.08487853,0.17062570,0.18625495,-0.35294041,-0.20373452,-0.17155528,-0.41765839,0.29760501,0.09875830,0.16683167,-0.13278036,-0.49249160,-0.37619066,0.03013136,-0.02764852,-0.02738436,-0.05007861,0.10659484,0.08401268,0.02318915,0.28488588,-0.15072267,-0.38870072,0.08306333,0.02107257,0.13691151,0.04548344,0.02238396,0.21222101,0.13333030,0.12483411,-0.01282934,-0.04378027,0.06165454,-0.09469184,0.02925954,0.00691866,0.07675476,-0.03435745,0.03650286,-0.03344232,0.06162006,0, 00:00:16.5
166,0.97678059,0.75454360,-0.08226483,-0.68726897,-0.29378918,-0.42192307,-0.21231206,-0.07201733,0.10418978,-0.12070532,0.08729157,0.17924745,0.19394867,-0.36351907,-0.21137804,-0.17681350,-0.42735252,0.30935729,0.09927630,0.16863957,-0.13250129,-0.50215483,-0.38360545,0.03156494,-0.02745495,-0.02741085,-0.05133410,0.11233389,0.08939590,0.01980328,0.29015729,-0.15388283,-0.39748853,0.08450673,0.01995179,0.14066361,0.04517628,0.02322327,0.21947795,0.13666922,0.12488458,-0.01283620,-0.04477510,0.06125780,-0.09755359,0.03052028,0.00825039,0.07828020,-0.03402239,0.03747796,-0.03538774,0.06235707,0, 00:00:16.5
167,1.00526571,0.77886730,-0.08502387,-0.70879197,-0.30543232,-0.43598446,-0.21568650,-0.07356245,0.10467242,-0.12050479,0.08890686,0.18727057,0.20166060,-0.37414211,-0.21900870,-0.18187426,-0.43723196,0.32094410,0.09930256,0.17072214,-0.13219830,-0.51171863,-0.39141512,0.03277531,-0.02715115,-0.02748733,-0.05258679,0.11803231,0.09474443,0.01659222,0.29554066,-0.15490787,-0.40640140,0.08577203,0.01886165,0.14436290,0.04503583,0.02402075,0.22674040,0.14016159,0.12488303,-0.01275352,-0.04542538,0.06045225,-0.10050198,0.03180726,0.00959647,0.07982440,-0.03369779,0.03849108,-0.03868254,0.06242594,0, 00:00:16.6
168,1.03367138,0.80228448,-0.08821813,-0.73046416,-0.31657159,-0.45008734,-0.21899343,-0.07376602,0.10627642,-0.12055565,0.09061223,0.19534904,0.20884468,-0.38500899,-0.22650215,-0.18737751,-0.44674817,0.33262807,0.10025333,0.17212279,-0.13218257,-0.52114218,-0.39893195,0.03400224,-0.02691412,-0.02752961,-0.05371245,0.12384658,0.10019402,0.01264340,0.30058542,-0.15545824,-0.41495273,0.08713511,0.01779203,0.14812385,0.04498386,0.02480732,0.23407161,0.14352395,0.12453301,-0.01261820,-0.04588351,0.05976797,-0.10341153,0.03317898,0.01101934,0.08130357,-0.03343584,0.03967203,-0.04208234,0.06238049,0, 00:00:16.7
169,1.06225574,0.82508081,-0.09236586,-0.75212443,-0.32691592,-0.46278632,-0.22119132,-0.07172693,0.11025434,-0.12107657,0.09283458,0.20387158,0.21542664,-0.39634737,-0.23398532,-0.19287550,-0.45519137,0.34410009,0.10232410,0.17299457,-0.13238113,-0.53099173,-0.40675569,0.03516230,-0.02659919,-0.02752635,-0.05485982,0.12971045,0.10574780,0.00957719,0.30586362,-0.15754944,-0.42326778,0.08885570,0.01657415,0.15204509,0.04494610,0.02559811,0.24166729,0.14707915,0.12492326,-0.01264255,-0.04680042,0.05936032,-0.10635705,0.03454342,0.01246127,0.08283614,-0.03320944,0.04077571,-0.04471419,0.06325128,0, 00:00:16.8
170,1.09116817,0.84821093,-0.09651808,-0.77424127,-0.33702976,-0.47357675,-0.22224276,-0.06877193,0.11554911,-0.12131920,0.09522825,0.21357863,0.22227015,-0.40806681,-0.24215420,-0.19811906,-0.46220586,0.35531363,0.10453752,0.17434527,-0.13220905,-0.54159027,-0.41443902,0.03628342,-0.02626256,-0.02750423,-0.05603106,0.13556157,0.11135118,0.00754555,0.31168640,-0.16033483,-0.43156996,0.09073588,0.01557127,0.15597521,0.04457240,0.02643628,0.24903092,0.15067826,0.12620391,-0.01229148,-0.04762458,0.05919068,-0.10926703,0.03594960,0.01392135,0.08440066,-0.03299967,0.04173902,-0.04728231,0.06486785,0, 00:00:17.0
171,1.11990857,0.87140852,-0.10017207,-0.79634422,-0.34712130,-0.48434871,-0.22346041,-0.06604226,0.12054418,-0.12130041,0.09776804,0.22324413,0.22916859,-0.41959444,-0.25034076,-0.20350420,-0.46938336,0.36654612,0.10650946,0.17598149,-0.13171051,-0.55202001,-0.42265159,0.03749172,-0.02573431,-0.02753125,-0.05717434,0.14143415,0.11695750,0.00556151,0.31775048,-0.16309199,-0.43976483,0.09251682,0.01464441,0.15995274,0.04425653,0.02729231,0.25654426,0.15415424,0.12778136,-0.01192695,-0.04845888,0.05929724,-0.11213963,0.03733858,0.01543801,0.08599716,-0.03274333,0.04302599,-0.04995252,0.06648955,0, 00:00:17.0
172,1.14835727,0.89413416,-0.10344590,-0.81818229,-0.35729259,-0.49583957,-0.22476773,-0.06356885,0.12515217,-0.12115481,0.10033292,0.23113281,0.23607171,-0.43093988,-0.25814676,-0.20874421,-0.47676870,0.37788624,0.10888285,0.17771298,-0.13146372,-0.56240284,-0.43053764,0.03871395,-0.02516941,-0.02752756,-0.05835449,0.14741904,0.12264279,0.00362317,0.32392606,-0.16617632,-0.44814953,0.09430219,0.01357257,0.16404797,0.04408835,0.02826834,0.26428819,0.15746099,0.12919980,-0.01168725,-0.04929589,0.05927915,-0.11499183,0.03850525,0.01696228,0.08768710,-0.03245182,0.04435145,-0.05284583,0.06767694,0, 00:00:17.1
173,1.17678130,0.91709661,-0.10663240,-0.84000725,-0.36759239,-0.50755018,-0.22615205,-0.06142186,0.12935004,-0.12103268,0.10266381,0.24034312,0.24304482,-0.44242620,-0.26572159,-0.21397392,-0.48438576,0.38928366,0.11138157,0.17954744,-0.13104731,-0.57284558,-0.43814483,0.03987794,-0.02477475,-0.02750401,-0.05959628,0.15339054,0.12829284,0.00125474,0.33030576,-0.16971222,-0.45661187,0.09609944,0.01227558,0.16820061,0.04406592,0.02930920,0.27195999,0.16093512,0.13073626,-0.01140029,-0.05043686,0.05898453,-0.11811092,0.03950217,0.01853616,0.08941095,-0.03226010,0.04550915,-0.05602263,0.06842964,0, 00:00:17.2
174,1.20511091,0.93997496,-0.11023152,-0.86200243,-0.37803334,-0.51931757,-0.22774486,-0.05921324,0.13374260,-0.12079899,0.10502429,0.24947724,0.24998969,-0.45392725,-0.27358687,-0.21917069,-0.49211228,0.40062198,0.11389825,0.18153761,-0.13048710,-0.58314472,-0.44601035,0.04101110,-0.02448985,-0.02753138,-0.06081519,0.15927459,0.13393228,-0.00070456,0.33680013,-0.17366722,-0.46502191,0.09795368,0.01090113,0.17223653,0.04410032,0.03025405,0.27944666,0.16436830,0.13246585,-0.01106516,-0.05159023,0.05875207,-0.12130917,0.04053220,0.02014287,0.09102552,-0.03210374,0.04675525,-0.05932995,0.06913341,0, 00:00:17.3
175,1.23354578,0.96284461,-0.11376902,-0.88389081,-0.38850135,-0.53103799,-0.22946003,-0.05697673,0.13829279,-0.12070306,0.10735095,0.25761092,0.25688609,-0.46550545,-0.28169051,-0.22472237,-0.49992955,0.41185191,0.11628263,0.18348204,-0.12979294,-0.59365487,-0.45393136,0.04227972,-0.02399705,-0.02758376,-0.06205287,0.16518730,0.13959619,-0.00273833,0.34326530,-0.17787029,-0.47344625,0.09988480,0.00961689,0.17612518,0.04411554,0.03111374,0.28686997,0.16783690,0.13418317,-0.01068452,-0.05228580,0.05857006,-0.12452046,0.04159310,0.02169769,0.09258549,-0.03198232,0.04800675,-0.06272939,0.06987283,0, 00:00:17.5
176,1.26199150,0.98590326,-0.11737046,-0.90556163,-0.39879188,-0.54282010,-0.23101500,-0.05472158,0.14291474,-0.12077394,0.10964478,0.26661345,0.26375085,-0.47711870,-0.28978974,-0.23024657,-0.50771767,0.42310801,0.11819591,0.18556458,-0.12918273,-0.60395503,-0.46118891,0.04335162,-0.02355497,-0.02763574,-0.06327312,0.17116901,0.14523664,-0.00486300,0.34969994,-0.18167113,-0.48168045,0.10176136,0.00806273,0.17982894,0.04399291,0.03198143,0.29436919,0.17116775,0.13598172,-0.01018447,-0.05299165,0.05835833,-0.12778056,0.04268872,0.02323009,0.09418926,-0.03182386,0.04928911,-0.06651133,0.07093973,0, 00:00:17.5
177,1.29033208,1.00876951,-0.12098441,-0.92700946,-0.40865034,-0.55399591,-0.23250151,-0.05264354,0.14776692,-0.12081272,0.11185166,0.27494183,0.27057216,-0.48871365,-0.29769295,-0.23560415,-0.51501924,0.43441257,0.12020589,0.18745147,-0.12886192,-0.61397070,-0.46803907,0.04441250,-0.02303634,-0.02771299,-0.06452531,0.17722064,0.15090162,-0.00705703,0.35639566,-0.18399629,-0.48943299,0.10349911,0.00660391,0.18344469,0.04377959,0.03283532,0.30196476,0.17440589,0.13761213,-0.00956224,-0.05344900,0.05809661,-0.13102207,0.04388117,0.02481164,0.09585886,-0.03164469,0.05046612,-0.07021283,0.07199735,0, 00:00:17.6
178,1.31886446,1.03192651,-0.12442219,-0.94805217,-0.41793868,-0.56524009,-0.23405489,-0.05080621,0.15251110,-0.12068412,0.11439388,0.28282014,0.27760416,-0.50012666,-0.30539867,-0.24086344,-0.52246803,0.44586101,0.12197246,0.18922944,-0.12879899,-0.62401325,-0.47433648,0.04551951,-0.02257203,-0.02767356,-0.06568167,0.18328093,0.15661979,-0.00952727,0.36281505,-0.18856220,-0.49682727,0.10514826,0.00522374,0.18726929,0.04357156,0.03371075,0.30936757,0.17786540,0.13878882,-0.00882913,-0.05340398,0.05808809,-0.13423266,0.04513488,0.02641198,0.09755094,-0.03141807,0.05186763,-0.07401432,0.07314280,0, 00:00:17.7
179,1.34735096,1.05555189,-0.12753661,-0.96901679,-0.42701200,-0.57638001,-0.23575050,-0.04905169,0.15744939,-0.12094044,0.11708304,0.29275313,0.28507888,-0.51182574,-0.31322405,-0.24603648,-0.52971947,0.45726094,0.12311407,0.19079395,-0.12835646,-0.63390589,-0.48076850,0.04647036,-0.02199629,-0.02767108,-0.06677974,0.18931390,0.16242866,-0.01198487,0.36896700,-0.19322692,-0.50395799,0.10685962,0.00399013,0.19107987,0.04332925,0.03459503,0.31677392,0.18133764,0.13986838,-0.00804241,-0.05347149,0.05759018,-0.13764979,0.04631530,0.02801554,0.09933271,-0.03119010,0.05312970,-0.07832719,0.07418675,0, 00:00:17.8
180,1.37586021,1.07818341,-0.13147452,-0.98997307,-0.43630001,-0.58705854,-0.23738630,-0.04739887,0.16248782,-0.12195913,0.11926622,0.30236882,0.29185560,-0.52393067,-0.32161403,-0.25135624,-0.53679544,0.46855772,0.12407862,0.19186944,-0.12854667,-0.64362299,-0.48711443,0.04754651,-0.02159885,-0.02762081,-0.06791291,0.19531913,0.16816418,-0.01452320,0.37489524,-0.19751619,-0.51086485,0.10857829,0.00255456,0.19451118,0.04275135,0.03540652,0.32408318,0.18479717,0.14063412,-0.00706030,-0.05371469,0.05692323,-0.14106765,0.04750507,0.02947071,0.10110046,-0.03100540,0.05432136,-0.08265192,0.07491186,0, 00:00:18.0
181,1.40347540,1.09820771,-0.13684970,-1.00989223,-0.44557640,-0.59685594,-0.23874886,-0.04609140,0.16724361,-0.12351470,0.12160583,0.31131950,0.29655817,-0.53582680,-0.32986504,-0.25634587,-0.54325747,0.48006606,0.12505893,0.19259690,-0.12922011,-0.65366650,-0.49374735,0.04854557,-0.02130180,-0.02770353,-0.06909000,0.20131810,0.17392832,-0.01803362,0.38048744,-0.20272951,-0.51787716,0.11008729,0.00061883,0.19735651,0.04130404,0.03598544,0.33091387,0.18824390,0.14043805,-0.00595133,-0.05324952,0.05569967,-0.14421023,0.04872197,0.03052833,0.10285978,-0.03070121,0.05538781,-0.08675385,0.07478321,0, 00:00:18.0
182,1.43083322,1.11872566,-0.14201136,-1.02849793,-0.45513672,-0.60644764,-0.23979691,-0.04453628,0.17145462,-0.12538904,0.12403878,0.31930196,0.30134955,-0.54691541,-0.33744228,-0.26099074,-0.54911947,0.49159136,0.12631971,0.19340393,-0.13041599,-0.66338313,-0.50112933,0.04954562,-0.02087760,-0.02780102,-0.07012548,0.20716625,0.17982562,-0.02188504,0.38645169,-0.20734388,-0.52504033,0.11108541,-0.00200390,0.19986029,0.03953036,0.03648832,0.33733773,0.19140036,0.14015654,-0.00455392,-0.05182146,0.05456705,-0.14633900,0.04990026,0.03123671,0.10446323,-0.03024538,0.05619392,-0.08945306,0.07508052,0, 00:00:18.1
183,1.45705342,1.13913977,-0.14583389,-1.04527926,-0.46499258,-0.61617619,-0.24036084,-0.04237739,0.17397836,-0.12571755,0.12618361,0.32495040,0.30634788,-0.55711317,-0.34508067,-0.26530495,-0.55446148,0.50243062,0.12639989,0.19472697,-0.13145418,-0.67327863,-0.50916421,0.05079854,-0.02029627,-0.02818016,-0.07103629,0.21266598,0.18579222,-0.02524004,0.39316475,-0.21006510,-0.53309393,0.11059672,-0.00412177,0.20127696,0.03739315,0.03693043,0.34291759,0.19384733,0.14096820,-0.00282670,-0.05028936,0.05402270,-0.14526799,0.05137996,0.03141979,0.10564672,-0.02978316,0.05657850,-0.09066693,0.07642893,0, 00:00:18.2
184,1.47994542,1.15623415,-0.15142304,-1.06133509,-0.47576225,-0.62938297,-0.24510589,-0.04162514,0.17244901,-0.12656362,0.12841138,0.32997176,0.30966681,-0.56597805,-0.35334682,-0.26905146,-0.56388611,0.51181978,0.12288754,0.19578598,-0.13333842,-0.68137550,-0.51552588,0.05210939,-0.01972616,-0.02859496,-0.07178598,0.21778066,0.19169672,-0.02884987,0.39832819,-0.21247338,-0.53933734,0.10909599,-0.00485886,0.20141873,0.03529713,0.03735106,0.34802639,0.19452493,0.14063969,-0.00109094,-0.04872902,0.05348298,-0.14217788,0.05274545,0.03092888,0.10652105,-0.02938504,0.05692575,-0.09115620,0.07789433,0, 00:00:18.3
185,1.49572670,1.16424656,-0.16064309,-1.07748187,-0.48689502,-0.64435607,-0.25429666,-0.04027983,0.16988157,-0.12919770,0.13029113,0.33511317,0.30888420,-0.57273269,-0.36262420,-0.27133009,-0.57647687,0.51952016,0.11964513,0.19821192,-0.13733362,-0.68499440,-0.51822263,0.05297862,-0.01908392,-0.02850255,-0.07193935,0.22255160,0.19741073,-0.03105446,0.40336317,-0.21278410,-0.54166710,0.10748438,-0.00501559,0.20106444,0.03388550,0.03796357,0.35267797,0.19475363,0.14072081,0.00058213,-0.04751103,0.05263893,-0.13871029,0.05336375,0.03027573,0.10758406,-0.02890978,0.05730107,-0.09137260,0.07907744,0, 00:00:18.5
186,1.50481439,1.16726530,-0.16796538,-1.08931065,-0.49507341,-0.64872617,-0.25464475,-0.03913675,0.16763082,-0.13190198,0.13122874,0.33853853,0.30711529,-0.57667792,-0.37005991,-0.27241325,-0.57846069,0.52616680,0.11638355,0.20211828,-0.14074183,-0.68623459,-0.52016962,0.05351690,-0.01865863,-0.02815009,-0.07156996,0.22684596,0.20283681,-0.03158711,0.40909615,-0.21122783,-0.54269862,0.10596170,-0.00517568,0.20077232,0.03296746,0.03851984,0.35690612,0.19477247,0.14190792,0.00210565,-0.04662568,0.05126680,-0.13558593,0.05364831,0.02951858,0.10846181,-0.02855702,0.05764323,-0.09179627,0.07977650,0, 00:00:18.5
187,1.51353621,1.17469382,-0.16924009,-1.09804654,-0.50071895,-0.65004170,-0.25186577,-0.03749498,0.16639836,-0.13420078,0.13249636,0.34245998,0.30985403,-0.57961792,-0.37564591,-0.27312493,-0.57782632,0.53234577,0.11394707,0.20596981,-0.14330605,-0.68565851,-0.52079338,0.05383138,-0.01828293,-0.02776745,-0.07130642,0.23095489,0.20802832,-0.03201351,0.41433501,-0.20911288,-0.54282761,0.10460222,-0.00522939,0.20073429,0.03215096,0.03896729,0.36109772,0.19479349,0.14299265,0.00361094,-0.04601670,0.05020565,-0.13280585,0.05378043,0.02878120,0.10914914,-0.02834038,0.05787344,-0.09220060,0.08008979,0, 00:00:18.6
