Header
File Version,1.24
Patient Information
ID,10052
Name,
Comment,VFT,,
Birth Date,0000/00/00
Age, 64y
Sex,Male
Analyze Information
AnalyzeMode,Integral
Pre Time[s],10.0
Post Time[s],5.0
Recovery Time[s],50.0
Base Time[s],5
Fitting Degree,1
HPF[Hz],No Filter
LPF[Hz],No Filter
Moving Average[s],5.0
Measure Information
Date,2015/08/14 12:25
Probe Type,adult
Mode,3x11
Wave[nm],695,830
Wave Length,CH1(703.0),CH1(827.2),CH2(703.0),CH2(826.5),CH3(703.0),CH3(826.5),CH4(703.0),CH4(827.2),CH5(703.0),CH5(827.2),CH6(703.0),CH6(827.2),CH7(703.0),CH7(827.2),CH8(703.7),CH8(827.2),CH9(703.7),CH9(827.2),CH10(704.5),CH10(827.9),CH11(703.0),CH11(827.2),CH12(703.7),CH12(827.2),CH13(703.0),CH13(826.5),CH14(703.7),CH14(827.2),CH15(703.0),CH15(827.2),CH16(703.0),CH16(827.9),CH17(703.0),CH17(827.2),CH18(704.5),CH18(826.5),CH19(703.7),CH19(827.2),CH20(704.5),CH20(826.5),CH21(704.5),CH21(827.9),CH22(703.7),CH22(827.2),CH23(703.7),CH23(827.2),CH24(703.7),CH24(827.2),CH25(703.7),CH25(827.2),CH26(703.0),CH26(827.9),CH27(703.0),CH27(827.9),CH28(704.5),CH28(826.5),CH29(704.5),CH29(826.5),CH30(704.5),CH30(826.5),CH31(704.5),CH31(826.5),CH32(703.7),CH32(826.5),CH33(703.7),CH33(827.2),CH34(704.5),CH34(826.5),CH35(703.7),CH35(827.2),CH36(703.0),CH36(826.5),CH37(703.0),CH37(827.9),CH38(704.5),CH38(826.5),CH39(704.5),CH39(826.5),CH40(703.7),CH40(827.2),CH41(704.5),CH41(826.5),CH42(704.5),CH42(825.7),CH43(703.7),CH43(826.5),CH44(704.5),CH44(826.5),CH45(704.5),CH45(826.5),CH46(703.0),CH46(826.5),CH47(703.0),CH47(826.5),CH48(704.5),CH48(826.5),CH49(704.5),CH49(826.5),CH50(703.7),CH50(827.2),CH51(703.7),CH51(827.2),CH52(704.5),CH52(825.7)
Analog Gain,14.43137300,14.43137300,14.43137300,14.43137300,8.54902000,8.54902000,8.54902000,8.54902000,3.45098000,3.45098000,3.45098000,3.45098000,1.25490200,1.25490200,1.25490200,1.25490200,6.58823500,6.58823500,6.58823500,6.58823500,9.09803900,9.09803900,14.43137300,14.43137300,1.25490200,1.25490200,8.54902000,8.54902000,1.25490200,1.25490200,3.45098000,3.45098000,1.25490200,1.25490200,1.25490200,1.25490200,1.25490200,1.25490200,6.58823500,6.58823500,6.58823500,6.58823500,9.09803900,9.09803900,1.25490200,1.25490200,1.25490200,1.25490200,1.25490200,1.25490200,1.25490200,1.25490200,1.25490200,1.25490200,1.25490200,1.25490200,1.25490200,1.25490200,1.25490200,1.25490200,6.58823500,6.58823500,9.09803900,9.09803900,5.25490200,5.25490200,1.25490200,1.25490200,1.25490200,1.25490200,1.25490200,1.25490200,1.25490200,1.25490200,1.25490200,1.25490200,1.25490200,1.25490200,1.25490200,1.25490200,3.92156900,3.92156900,6.58823500,6.58823500,5.25490200,5.25490200,5.25490200,5.25490200,1.25490200,1.25490200,1.25490200,1.25490200,1.25490200,1.25490200,1.25490200,1.25490200,1.25490200,1.25490200,1.25490200,1.25490200,3.92156900,3.92156900,3.92156900,3.92156900
Digital Gain,11.84000000,2.48000000,16.82000000,3.27000000,26.93000000,5.85000000,11.21000000,2.55000000,7.94000000,2.05000000,26.54000000,5.69000000,23.59000000,6.81000000,7.64000000,2.43000000,14.88000000,3.07000000,20.19000000,4.10000000,18.83000000,3.61000000,50.83000000,8.42000000,10.63000000,3.60000000,15.46000000,3.46000000,9.27000000,3.72000000,27.23000000,7.15000000,23.46000000,7.27000000,14.41000000,4.89000000,60.59000000,15.45000000,12.42000000,3.53000000,27.95000000,6.02000000,10.23000000,2.07000000,99.34000000,22.30000000,25.46000000,8.19000000,23.22000000,7.71000000,10.24000000,3.55000000,6.83000000,2.63000000,7.70000000,2.77000000,11.70000000,3.91000000,73.80000000,22.07000000,15.46000000,4.55000000,105.12000000,15.95000000,8.51000000,1.98000000,37.70000000,12.99000000,33.37000000,12.18000000,9.25000000,3.62000000,9.89000000,3.73000000,5.63000000,2.92000000,30.81000000,10.89000000,51.38000000,18.54000000,13.36000000,3.88000000,8.18000000,1.89000000,33.26000000,7.84000000,18.02000000,6.17000000,12.15000000,6.46000000,13.75000000,5.84000000,3.50000000,1.64000000,3.45000000,1.75000000,4.01000000,2.54000000,20.71000000,9.64000000,13.45000000,4.25000000,12.00000000,3.19000000
Sampling Period[s],0.1
StimType,STIM(VFT)
Stim Time[s]
A,60,B,15,C,15,D,15,E,15,F,15,G,15,H,15,I,15,J,15
Repeat Count,1
Exception Ch,0,0,0,0,0,0,0,0,0,0,0,0,0,0,0,0,0,0,0,0,0,0,0,0,0,0,0,0,0,0,0,0,0,0,0,0,0,0,0,0,0,0,0,0,0,0,0,0,0,0,0,0






Data
Probe1(Oxy),CH1,CH2,CH3,CH4,CH5,CH6,CH7,CH8,CH9,CH10,CH11,CH12,CH13,CH14,CH15,CH16,CH17,CH18,CH19,CH20,CH21,CH22,CH23,CH24,CH25,CH26,CH27,CH28,CH29,CH30,CH31,CH32,CH33,CH34,CH35,CH36,CH37,CH38,CH39,CH40,CH41,CH42,CH43,CH44,CH45,CH46,CH47,CH48,CH49,CH50,CH51,CH52,Mark,Time,BodyMovement,RemovalMark,PreScan
1,-0.06347094,-0.04553645,-0.00890769,0.01878724,-0.01049054,-0.09826311,-0.08240414,0.08246937,-0.01079199,-0.07289136,-0.01659513,-0.18716699,0.00615854,0.00231662,-0.00541330,0.03324301,-0.05842138,-0.04851914,0.03646157,0.05167237,-0.05015453,-0.11261043,-0.12730496,-0.00012981,0.01857975,0.02512929,0.02299910,0.01343295,-0.00947291,0.06416582,0.01781688,0.02838160,-0.12136009,0.01866573,-0.03322759,-0.07040088,-0.01972934,-0.02634050,-0.00784656,0.00880199,0.07266277,-0.01357213,0.07620422,0.01154818,0.00599448,-0.02162127,-0.00109924,0.02026976,0.00079776,0.00887090,-0.00031339,-0.05711038,0, 00:00:00.0
2,-0.06327116,-0.04491113,-0.00825242,0.01800901,-0.01068506,-0.09767105,-0.08212337,0.08180720,-0.00912274,-0.06998308,-0.01692864,-0.18773161,0.00630901,0.00153657,-0.00642080,0.03227333,-0.05900791,-0.04780732,0.03699749,0.04851911,-0.04722795,-0.11367974,-0.12911250,-0.00088299,0.01690060,0.02390192,0.02205138,0.01182943,-0.00976083,0.06081913,0.01527502,0.02718648,-0.12243301,0.01584125,-0.03332929,-0.07048053,-0.01961998,-0.02656886,-0.00847434,0.00753729,0.06888090,-0.01394863,0.07507288,0.00870062,0.00409362,-0.02263853,-0.00223686,0.01942365,-0.00002951,0.00773167,-0.00164172,-0.05729396,0, 00:00:00.1
3,-0.06314945,-0.04459802,-0.00784137,0.01684969,-0.01107160,-0.09736945,-0.08208300,0.08089716,-0.00784304,-0.06785287,-0.01772640,-0.18944046,0.00629063,0.00093398,-0.00800969,0.03136668,-0.05980581,-0.04761622,0.03688584,0.04539439,-0.04535612,-0.11496823,-0.13104004,-0.00182106,0.01458525,0.02215047,0.02090803,0.00983744,-0.01029365,0.05727668,0.01264789,0.02615067,-0.12374727,0.01272741,-0.03383254,-0.07136796,-0.01982152,-0.02711607,-0.00945620,0.00595769,0.06507076,-0.01476941,0.07328943,0.00561913,0.00181662,-0.02426287,-0.00385014,0.01822651,-0.00124226,0.00593631,-0.00352281,-0.05784627,0, 00:00:00.2
4,-0.06266943,-0.04350045,-0.00723549,0.01594222,-0.01143086,-0.09687016,-0.08184738,0.08030216,-0.00630296,-0.06551831,-0.01783938,-0.18953867,0.00681709,0.00038864,-0.00926998,0.03047499,-0.06048409,-0.04703323,0.03699335,0.04289747,-0.04309009,-0.11546905,-0.13303420,-0.00244865,0.01331283,0.02086150,0.02001982,0.00814743,-0.01051798,0.05445867,0.01101727,0.02579819,-0.12426417,0.01299807,-0.03349306,-0.07122102,-0.01981189,-0.02738835,-0.00995457,0.00534369,0.06245352,-0.01506404,0.07230310,0.00617593,0.00236406,-0.02451492,-0.00458302,0.01740012,-0.00182332,0.00525440,-0.00381701,-0.05688692,0, 00:00:00.3
5,-0.06144316,-0.04183184,-0.00645220,0.01555893,-0.01165420,-0.09618621,-0.08097523,0.08033783,-0.00470468,-0.06266640,-0.01723800,-0.18788736,0.00784640,0.00042296,-0.00947228,0.02970275,-0.06054167,-0.04557161,0.03740355,0.04077281,-0.04052727,-0.11575560,-0.13395245,-0.00241590,0.01342471,0.02041843,0.01961929,0.00731027,-0.01014424,0.05226365,0.01011478,0.02447451,-0.12411314,0.01427114,-0.03256229,-0.06947865,-0.01935812,-0.02679493,-0.00971202,0.00537931,0.06013784,-0.01498784,0.07033788,0.00877770,0.00383619,-0.02343989,-0.00438758,0.01715750,-0.00149004,0.00557015,-0.00272232,-0.05310700,0, 00:00:00.5
6,-0.06046493,-0.04005203,-0.00526827,0.01495704,-0.01185157,-0.09573024,-0.08013601,0.08014491,-0.00332979,-0.06011897,-0.01664355,-0.18767887,0.00890562,0.00065082,-0.00952943,0.02921362,-0.06059277,-0.04409993,0.03744170,0.03853171,-0.03753509,-0.11627343,-0.13462277,-0.00247040,0.01342162,0.02007769,0.01932503,0.00661614,-0.00983614,0.05038976,0.00882424,0.02296373,-0.12401009,0.01469287,-0.03179464,-0.06791753,-0.01878980,-0.02603775,-0.00974371,0.00530916,0.05787859,-0.01475378,0.06532712,0.01244175,0.00426955,-0.02273847,-0.00445078,0.01681493,-0.00124940,0.00524577,-0.00094104,-0.04670334,0, 00:00:00.5
7,-0.05972059,-0.03839873,-0.00448973,0.01426873,-0.01217267,-0.09527104,-0.07942386,0.07966624,-0.00224769,-0.05764630,-0.01659039,-0.18822262,0.00987170,0.00062923,-0.00981066,0.02864506,-0.06116220,-0.04298792,0.03718517,0.03624334,-0.03500177,-0.11701873,-0.13511124,-0.00287418,0.01304205,0.01944597,0.01886309,0.00578280,-0.00974694,0.04828196,0.00737551,0.02214049,-0.12450379,0.01424252,-0.03121304,-0.06676401,-0.01829020,-0.02556808,-0.00989289,0.00487843,0.05509580,-0.01467422,0.06040091,0.01423805,0.00392991,-0.02270642,-0.00485047,0.01627041,-0.00133769,0.00461893,-0.00020722,-0.04094674,0, 00:00:00.6
8,-0.05932666,-0.03735804,-0.00403546,0.01338477,-0.01251731,-0.09478746,-0.07886992,0.07894477,-0.00153335,-0.05552180,-0.01687031,-0.18799165,0.01057188,0.00039913,-0.01033801,0.02795036,-0.06202266,-0.04229894,0.03677880,0.03369082,-0.03345600,-0.11790499,-0.13654348,-0.00331295,0.01218762,0.01847637,0.01817612,0.00469862,-0.00990552,0.04567038,0.00552539,0.02133140,-0.12540385,0.01290669,-0.03111834,-0.06612530,-0.01809831,-0.02546610,-0.01043673,0.00392282,0.05160958,-0.01512093,0.05540032,0.01427638,0.00264924,-0.02325332,-0.00563972,0.01546815,-0.00175122,0.00338898,-0.00036551,-0.03642246,0, 00:00:00.7
9,-0.05919975,-0.03644618,-0.00362177,0.01234099,-0.01301875,-0.09438394,-0.07836420,0.07791058,-0.00108159,-0.05365905,-0.01754287,-0.18896677,0.01106986,-0.00018010,-0.01133814,0.02679453,-0.06252359,-0.04206399,0.03618477,0.03101754,-0.03254550,-0.11880644,-0.13811962,-0.00394312,0.01071169,0.01715072,0.01725689,0.00329070,-0.01035944,0.04258780,0.00341547,0.01940243,-0.12660767,0.01047047,-0.03163606,-0.06614983,-0.01817541,-0.02573562,-0.01135966,0.00270327,0.04774213,-0.01598355,0.05082829,0.01298215,0.00047404,-0.02453138,-0.00689063,0.01433788,-0.00262029,0.00173504,-0.00102349,-0.03301384,0, 00:00:00.8
10,-0.05906789,-0.03526117,-0.00272002,0.01127972,-0.01371744,-0.09392076,-0.07817911,0.07695630,-0.00070640,-0.05200779,-0.01799357,-0.18944670,0.01173733,-0.00062639,-0.01254197,0.02551741,-0.06293766,-0.04187366,0.03590422,0.02852866,-0.03111475,-0.11934850,-0.13897794,-0.00455899,0.00926372,0.01567195,0.01626411,0.00177816,-0.01078761,0.03951907,0.00162833,0.01793865,-0.12740341,0.00943166,-0.03197511,-0.06607115,-0.01842513,-0.02607524,-0.01225945,0.00175644,0.04436050,-0.01676075,0.04719912,0.01259833,-0.00060756,-0.02549051,-0.00803895,0.01321607,-0.00344058,0.00053733,-0.00147886,-0.02988424,0, 00:00:01.0
11,-0.05846120,-0.03340402,-0.00141833,0.01041531,-0.01431181,-0.09325388,-0.07755342,0.07661402,0.00021011,-0.04958414,-0.01760898,-0.18951182,0.01291571,-0.00061528,-0.01276936,0.02458028,-0.06307636,-0.04075933,0.03617118,0.02671208,-0.02916401,-0.11933534,-0.13827087,-0.00459994,0.00912585,0.01498964,0.01569086,0.00097003,-0.01063062,0.03755175,0.00082991,0.01773936,-0.12728277,0.01092640,-0.03125224,-0.06421082,-0.01819389,-0.02567843,-0.01230497,0.00160675,0.04209451,-0.01675156,0.04557770,0.01443039,0.00077948,-0.02481920,-0.00806525,0.01261557,-0.00331805,0.00067902,-0.00083910,-0.02630553,0, 00:00:01.0
12,-0.05761598,-0.03133560,0.00019805,0.00982406,-0.01477946,-0.09218016,-0.07608478,0.07657067,0.00132268,-0.04680667,-0.01703113,-0.18930376,0.01421687,-0.00043029,-0.01249261,0.02403493,-0.06287270,-0.03916079,0.03664281,0.02508843,-0.02665340,-0.11929622,-0.13828720,-0.00447520,0.00956317,0.01476405,0.01534959,0.00063840,-0.01025835,0.03587468,0.00020182,0.01833621,-0.12703151,0.01224472,-0.03030806,-0.06176705,-0.01755828,-0.02468070,-0.01192890,0.00169105,0.04008811,-0.01651156,0.04415936,0.01608466,0.00206435,-0.02387600,-0.00773316,0.01216093,-0.00284597,0.00115708,-0.00006391,-0.02285519,0, 00:00:01.1
13,-0.05675494,-0.02951659,0.00161322,0.00895506,-0.01535481,-0.09085107,-0.07437539,0.07633134,0.00243700,-0.04414157,-0.01653814,-0.18902294,0.01534972,-0.00005393,-0.01259058,0.02347990,-0.06231576,-0.03781716,0.03687430,0.02346875,-0.02426678,-0.11942317,-0.13830410,-0.00452598,0.00966755,0.01442466,0.01496661,0.00025483,-0.01002853,0.03427786,-0.00036931,0.01786919,-0.12704197,0.01258123,-0.02962847,-0.05995084,-0.01692913,-0.02378703,-0.01176511,0.00158282,0.03791951,-0.01622119,0.04220895,0.01723801,0.00243713,-0.02331910,-0.00770056,0.01160017,-0.00262226,0.00114218,0.00037431,-0.01947415,0, 00:00:01.2
14,-0.05614604,-0.02811462,0.00235990,0.00781870,-0.01607611,-0.08965970,-0.07302009,0.07586443,0.00323728,-0.04188559,-0.01647154,-0.18948875,0.01626039,0.00014930,-0.01317481,0.02281777,-0.06193981,-0.03676927,0.03670992,0.02170219,-0.02246279,-0.11993222,-0.13861972,-0.00472063,0.00938199,0.01390924,0.01437328,-0.00031513,-0.00994626,0.03257119,-0.00114243,0.01693579,-0.12727347,0.01225217,-0.02919475,-0.05863316,-0.01640817,-0.02313049,-0.01174178,0.00116208,0.03559329,-0.01602905,0.03980724,0.01766095,0.00214969,-0.02316009,-0.00795252,0.01086516,-0.00267737,0.00078391,0.00027731,-0.01630185,0, 00:00:01.3
15,-0.05584926,-0.02686115,0.00324002,0.00642979,-0.01701744,-0.08867064,-0.07193844,0.07510442,0.00377708,-0.04018340,-0.01681698,-0.18961214,0.01692337,0.00004180,-0.01414226,0.02187346,-0.06188419,-0.03605242,0.03633820,0.01990634,-0.02113900,-0.12057069,-0.13979635,-0.00512622,0.00856365,0.01308581,0.01360948,-0.00115685,-0.01004515,0.03084467,-0.00219087,0.01645279,-0.12790236,0.01093034,-0.02891654,-0.05785040,-0.01605502,-0.02284940,-0.01211434,0.00047484,0.03307610,-0.01603117,0.03685474,0.01704577,0.00114601,-0.02359197,-0.00850952,0.00990849,-0.00305472,-0.00002592,-0.00034722,-0.01378780,0, 00:00:01.5
16,-0.05568176,-0.02595503,0.00393864,0.00484189,-0.01818191,-0.08770575,-0.07121412,0.07415683,0.00383563,-0.03848248,-0.01716450,-0.19035403,0.01742746,-0.00023601,-0.01551127,0.02089481,-0.06208287,-0.03564015,0.03617927,0.01808853,-0.01998920,-0.12110015,-0.14084758,-0.00557652,0.00728442,0.01193953,0.01268952,-0.00223661,-0.01034195,0.02900663,-0.00334071,0.01528706,-0.12878247,0.00940702,-0.02881132,-0.05752933,-0.01604543,-0.02282774,-0.01284076,-0.00055627,0.03043605,-0.01631736,0.03419242,0.01612826,-0.00012429,-0.02436187,-0.00936679,0.00879142,-0.00368158,-0.00104076,-0.00130360,-0.01162371,0, 00:00:01.5
17,-0.05516203,-0.02468214,0.00467814,0.00363130,-0.01922978,-0.08687483,-0.07023419,0.07363727,0.00409360,-0.03674153,-0.01701686,-0.19023167,0.01818123,-0.00023060,-0.01636105,0.01996514,-0.06202117,-0.03485005,0.03665361,0.01685119,-0.01868412,-0.12117607,-0.14118373,-0.00560272,0.00692362,0.01111481,0.01199707,-0.00301970,-0.01035834,0.02768538,-0.00364525,0.01475944,-0.12887846,0.01006817,-0.02810060,-0.05644945,-0.01589096,-0.02255644,-0.01317228,-0.00084090,0.02893459,-0.01634791,0.03266292,0.01727431,0.00055221,-0.02411535,-0.00957294,0.00792811,-0.00385467,-0.00105981,-0.00122245,-0.00881908,0, 00:00:01.6
18,-0.05419745,-0.02299448,0.00564628,0.00267458,-0.01996947,-0.08582065,-0.06872949,0.07366175,0.00490685,-0.03487841,-0.01657943,-0.18990542,0.01926487,0.00003851,-0.01638885,0.01933857,-0.06120159,-0.03347735,0.03741057,0.01625410,-0.01644982,-0.12100684,-0.14109053,-0.00525876,0.00754746,0.01092174,0.01175819,-0.00319239,-0.00993823,0.02680368,-0.00352567,0.01539007,-0.12850785,0.01166408,-0.02712228,-0.05419366,-0.01538478,-0.02167208,-0.01280302,-0.00057857,0.02799137,-0.01586581,0.03200512,0.01924617,0.00211001,-0.02296347,-0.00903921,0.00745783,-0.00336250,-0.00028110,-0.00057002,-0.00597248,0, 00:00:01.7
19,-0.05330623,-0.02140816,0.00651004,0.00191433,-0.02056007,-0.08457247,-0.06727602,0.07370465,0.00595235,-0.03311680,-0.01611924,-0.19009486,0.02029109,0.00043954,-0.01639701,0.01893153,-0.06027937,-0.03210955,0.03823810,0.01571315,-0.01518437,-0.12088475,-0.14105912,-0.00509139,0.00800985,0.01083786,0.01158029,-0.00321098,-0.00944229,0.02593318,-0.00352076,0.01618949,-0.12823837,0.01251479,-0.02631510,-0.05202799,-0.01474326,-0.02069039,-0.01238447,-0.00020063,0.02691616,-0.01524362,0.03160582,0.02017652,0.00309995,-0.02200696,-0.00856682,0.00702615,-0.00292188,0.00035590,-0.00086050,-0.00445000,0, 00:00:01.8
20,-0.05261751,-0.02032805,0.00739290,0.00106240,-0.02107069,-0.08324961,-0.06597166,0.07368030,0.00724795,-0.03184652,-0.01588943,-0.19022834,0.02104394,0.00040452,-0.01676990,0.01835093,-0.05944928,-0.03099023,0.03874023,0.01490366,-0.01424976,-0.12093784,-0.14068615,-0.00506589,0.00808963,0.01048421,0.01129501,-0.00341420,-0.00905017,0.02486497,-0.00379647,0.01644946,-0.12807058,0.01287966,-0.02573464,-0.05047545,-0.01420959,-0.01994372,-0.01224406,0.00002344,0.02567893,-0.01465748,0.03147618,0.01974490,0.00343960,-0.02153744,-0.00835451,0.00657091,-0.00276407,0.00047236,-0.00185135,-0.00410875,0, 00:00:02.0
21,-0.05194922,-0.01944880,0.00826378,-0.00008796,-0.02170818,-0.08184461,-0.06495623,0.07344238,0.00875601,-0.03121372,-0.01580178,-0.18928649,0.02156582,0.00033598,-0.01782170,0.01777487,-0.05892628,-0.03021919,0.03872795,0.01392494,-0.01346307,-0.12097510,-0.14058627,-0.00522590,0.00782449,0.00994677,0.01084579,-0.00377552,-0.00883930,0.02354277,-0.00444166,0.01635703,-0.12752609,0.01236261,-0.02545414,-0.04941476,-0.01386784,-0.01941069,-0.01233196,-0.00016402,0.02426135,-0.01398620,0.03130587,0.01837878,0.00311164,-0.02136357,-0.00847405,0.00604197,-0.00287920,0.00033930,-0.00296221,-0.00467683,0, 00:00:02.0
22,-0.05122872,-0.01847667,0.00913375,-0.00167171,-0.02228146,-0.08037852,-0.06426900,0.07255056,0.01035516,-0.03085413,-0.01570272,-0.18750331,0.02208461,0.00027318,-0.01955551,0.01700314,-0.05879234,-0.02975416,0.03800043,0.01303940,-0.01285551,-0.12039891,-0.13984427,-0.00570410,0.00712301,0.00916929,0.01016485,-0.00441468,-0.00883995,0.02222517,-0.00519694,0.01596162,-0.12637685,0.01099085,-0.02541916,-0.04889961,-0.01374055,-0.01926389,-0.01266117,-0.00065247,0.02272760,-0.01359380,0.03043336,0.01632893,0.00206100,-0.02132326,-0.00892411,0.00539126,-0.00332020,-0.00019703,-0.00437772,-0.00566824,0, 00:00:02.1
23,-0.05033176,-0.01704379,0.01028190,-0.00341360,-0.02300910,-0.07906444,-0.06374840,0.07135312,0.01159042,-0.03057512,-0.01544142,-0.18400016,0.02266443,0.00019181,-0.02161981,0.01598267,-0.05863563,-0.02937210,0.03716833,0.01226401,-0.01252019,-0.11893094,-0.13772431,-0.00613782,0.00633218,0.00826234,0.00923375,-0.00510809,-0.00886249,0.02115448,-0.00564764,0.01567295,-0.12420668,0.01075953,-0.02499597,-0.04847359,-0.01389302,-0.01927324,-0.01298620,-0.00091807,0.02154944,-0.01323749,0.02942561,0.01560311,0.00200146,-0.02084407,-0.00926923,0.00479810,-0.00372827,-0.00054030,-0.00536044,-0.00619785,0, 00:00:02.2
24,-0.04882354,-0.01496027,0.01135957,-0.00470335,-0.02349494,-0.07767736,-0.06264129,0.07030890,0.01255666,-0.03018131,-0.01459723,-0.17992300,0.02354286,0.00038803,-0.02270574,0.01534116,-0.05794322,-0.02827742,0.03651870,0.01199593,-0.01200399,-0.11649106,-0.13458790,-0.00607546,0.00654992,0.00780099,0.00856905,-0.00519875,-0.00856423,0.02091047,-0.00544172,0.01611665,-0.12098595,0.01241785,-0.02391619,-0.04686987,-0.01373335,-0.01869117,-0.01252726,-0.00060944,0.02124547,-0.01246422,0.02930585,0.01714397,0.00384435,-0.01909605,-0.00878575,0.00468347,-0.00337648,0.00011306,-0.00521276,-0.00582540,0, 00:00:02.3
25,-0.04738053,-0.01292729,0.01209686,-0.00558557,-0.02368149,-0.07599869,-0.06119270,0.06932217,0.01345021,-0.02999049,-0.01375209,-0.17468269,0.02445902,0.00082143,-0.02316050,0.01496406,-0.05695728,-0.02682126,0.03588592,0.01194124,-0.01198468,-0.11368729,-0.13098437,-0.00580667,0.00714894,0.00770100,0.00828654,-0.00483564,-0.00801417,0.02073984,-0.00504050,0.01734154,-0.11721098,0.01401583,-0.02262730,-0.04464152,-0.01318291,-0.01765414,-0.01166530,-0.00016944,0.02099218,-0.01152456,0.02925479,0.01870014,0.00567979,-0.01699020,-0.00799907,0.00476066,-0.00268263,0.00110647,-0.00489564,-0.00524682,0, 00:00:02.5
26,-0.04616306,-0.01126884,0.01291892,-0.00650826,-0.02386189,-0.07442525,-0.05986600,0.06818595,0.01421732,-0.03002106,-0.01314033,-0.16970628,0.02519656,0.00118004,-0.02373547,0.01456197,-0.05611795,-0.02565023,0.03515194,0.01174872,-0.01199149,-0.11080663,-0.12729016,-0.00565942,0.00751710,0.00755532,0.00803295,-0.00450003,-0.00757488,0.02042706,-0.00479483,0.01693195,-0.11342603,0.01476233,-0.02137780,-0.04270653,-0.01266516,-0.01676472,-0.01096562,0.00034173,0.02052466,-0.01078742,0.02894949,0.01947713,0.00679996,-0.01531227,-0.00742886,0.00476102,-0.00222231,0.00181547,-0.00489730,-0.00486579,0, 00:00:02.5
27,-0.04360957,-0.00808192,0.01516915,-0.00727341,-0.02321181,-0.07230085,-0.05666815,0.06532988,0.01818188,-0.02695341,-0.01181209,-0.16478293,0.02695879,0.00171717,-0.02388475,0.01337934,-0.05640234,-0.02076747,0.03458017,0.00812170,-0.00935597,-0.10841997,-0.12381385,-0.00545496,0.00792497,0.00703751,0.00729568,-0.00508688,-0.00650445,0.01648723,-0.00612031,0.01699494,-0.10959970,0.01634804,-0.01878068,-0.03854200,-0.01092673,-0.01503160,-0.00877110,0.00069086,0.01627113,-0.00925398,0.02793833,0.02162497,0.00926771,-0.01249884,-0.00684512,0.00419194,-0.00176117,0.00348348,-0.00562234,-0.00130965,0, 00:00:02.6
28,-0.04163744,-0.00569751,0.01684435,-0.00872567,-0.02267503,-0.07062529,-0.05450092,0.06204887,0.02163981,-0.02430408,-0.01080742,-0.15993266,0.02807019,0.00191451,-0.02476426,0.01191793,-0.05714820,-0.01672991,0.03367595,0.00397719,-0.00724894,-0.10606208,-0.12061840,-0.00578808,0.00724307,0.00594607,0.00643921,-0.00610845,-0.00583998,0.01188826,-0.00858912,0.01552909,-0.10617438,0.01529491,-0.01714920,-0.03568965,-0.00934084,-0.01373732,-0.00762048,0.00034455,0.01117458,-0.00835220,0.02580087,0.02082390,0.00906636,-0.01116130,-0.00709464,0.00328635,-0.00197633,0.00381111,-0.00752852,0.00096591,0, 00:00:02.7
29,-0.03994795,-0.00429154,0.01784747,-0.01060157,-0.02209565,-0.06805360,-0.05259947,0.05826802,0.02473550,-0.02202320,-0.01021810,-0.15473598,0.02836007,0.00172332,-0.02668803,0.00996985,-0.05791721,-0.01397884,0.03182126,-0.00034891,-0.00562818,-0.10345368,-0.11720300,-0.00651865,0.00529244,0.00415870,0.00507364,-0.00780247,-0.00571377,0.00706436,-0.01148331,0.01368620,-0.10241301,0.01357824,-0.01622638,-0.03427023,-0.00835014,-0.01322545,-0.00757371,-0.00019131,0.00589498,-0.00794554,0.02286660,0.01934521,0.00789174,-0.01090032,-0.00805418,0.00206287,-0.00284039,0.00298570,-0.00987392,0.00273207,0, 00:00:02.8
30,-0.03777298,-0.00302030,0.01864501,-0.01191064,-0.02087574,-0.06416363,-0.04966493,0.05503588,0.02864514,-0.01923007,-0.00921197,-0.14708360,0.02837129,0.00153220,-0.02820990,0.00816685,-0.05773780,-0.01151869,0.03028955,-0.00362214,-0.00288693,-0.09945071,-0.11216841,-0.00679300,0.00408392,0.00253921,0.00378006,-0.00925917,-0.00538177,0.00372045,-0.01342724,0.01252816,-0.09689511,0.01437072,-0.01494912,-0.03223182,-0.00770089,-0.01256518,-0.00736916,-0.00026580,0.00213000,-0.00736667,0.02042006,0.02037345,0.00859774,-0.00967830,-0.00838931,0.00121388,-0.00314798,0.00295728,-0.01104943,0.00532729,0, 00:00:03.0
31,-0.03458901,-0.00165861,0.01929504,-0.01234411,-0.01877525,-0.06058690,-0.04685374,0.05338129,0.03327749,-0.01598383,-0.00748036,-0.13656531,0.02810291,0.00147712,-0.02849974,0.00677689,-0.05760393,-0.00886816,0.02960698,-0.00594740,0.00091770,-0.09401768,-0.10597213,-0.00664432,0.00431622,0.00168355,0.00311521,-0.00977751,-0.00460959,0.00151557,-0.01447651,0.01248001,-0.08954979,0.01638902,-0.01309851,-0.02888257,-0.00687825,-0.01112129,-0.00652261,0.00021313,-0.00054660,-0.00638918,0.01914941,0.02289041,0.01049728,-0.00728774,-0.00777053,0.00085382,-0.00252311,0.00378388,-0.01120223,0.00855318,0, 00:00:03.0
32,-0.03119269,0.00037345,0.02029281,-0.01295361,-0.01688655,-0.05825607,-0.04565139,0.05177397,0.03679306,-0.01242390,-0.00534795,-0.12514363,0.02825157,0.00146892,-0.02884188,0.00581607,-0.05862820,-0.00637631,0.02845214,-0.00796472,0.00466088,-0.08757780,-0.09846880,-0.00627436,0.00487166,0.00125604,0.00286803,-0.00983165,-0.00370015,-0.00035324,-0.01518350,0.01160784,-0.08133556,0.01828485,-0.01113708,-0.02509538,-0.00592859,-0.00933207,-0.00552979,0.00075421,-0.00271158,-0.00528253,0.01801730,0.02513094,0.01234383,-0.00468186,-0.00684784,0.00072665,-0.00164913,0.00473222,-0.01080720,0.01104089,0, 00:00:03.1
33,-0.02775340,0.00290441,0.02149772,-0.01398850,-0.01606038,-0.05625309,-0.04432689,0.04982671,0.03908695,-0.00867900,-0.00334266,-0.11479878,0.02858824,0.00129249,-0.02972886,0.00515227,-0.05949053,-0.00405814,0.02698126,-0.00982969,0.00903785,-0.08085216,-0.09069096,-0.00582601,0.00538787,0.00106632,0.00271000,-0.00968044,-0.00288729,-0.00201739,-0.01602354,0.01123630,-0.07319129,0.02014465,-0.00930934,-0.02123323,-0.00489812,-0.00747498,-0.00470696,0.00125980,-0.00465561,-0.00418317,0.01710043,0.02711544,0.01404843,-0.00220288,-0.00583191,0.00070025,-0.00068553,0.00574952,-0.01030782,0.01288089,0, 00:00:03.2
34,-0.02464905,0.00541125,0.02288084,-0.01587261,-0.01649507,-0.05441865,-0.04308311,0.04725314,0.03946571,-0.00486661,-0.00198067,-0.10561682,0.02894120,0.00136340,-0.03105072,0.00462641,-0.06021319,-0.00184245,0.02535573,-0.01164049,0.01300989,-0.07539788,-0.08396651,-0.00559525,0.00537192,0.00075460,0.00255719,-0.00964477,-0.00231502,-0.00394406,-0.01692946,0.01049533,-0.06670874,0.02023389,-0.00773672,-0.01795405,-0.00384229,-0.00585204,-0.00410139,0.00132803,-0.00712104,-0.00348189,0.01584037,0.02721274,0.01452081,-0.00056335,-0.00524498,0.00050311,-0.00012792,0.00611198,-0.01055774,0.01376615,0, 00:00:03.3
35,-0.02239950,0.00708554,0.02339034,-0.01890215,-0.01836986,-0.05144671,-0.04103089,0.04360142,0.03843657,-0.00165498,-0.00165110,-0.09811103,0.02877042,0.00114951,-0.03369101,0.00354974,-0.05940546,-0.00063021,0.02330573,-0.01336384,0.01545872,-0.07061905,-0.07877127,-0.00593310,0.00393725,-0.00026261,0.00195637,-0.01030788,-0.00222826,-0.00614683,-0.01821007,0.00818698,-0.06153416,0.01785750,-0.00724821,-0.01652062,-0.00331309,-0.00512141,-0.00440962,0.00068324,-0.01003441,-0.00343313,0.01309865,0.02480529,0.01288219,-0.00065185,-0.00575977,-0.00022026,-0.00054078,0.00528085,-0.01163368,0.01328082,0, 00:00:03.5
36,-0.02042262,0.00801873,0.02321997,-0.02218661,-0.02039150,-0.04719479,-0.03784994,0.04028050,0.03766038,0.00047247,-0.00143360,-0.09092567,0.02820960,0.00057460,-0.03705393,0.00229244,-0.05652026,-0.00020749,0.02127502,-0.01485045,0.01750916,-0.06571979,-0.07334338,-0.00628768,0.00210451,-0.00164143,0.00091706,-0.01139867,-0.00241901,-0.00851566,-0.01934292,0.00718759,-0.05602941,0.01620097,-0.00699554,-0.01582251,-0.00314226,-0.00492920,-0.00514299,-0.00017161,-0.01260028,-0.00356090,0.01026568,0.02309178,0.01154228,-0.00097951,-0.00648327,-0.00120891,-0.00120781,0.00412172,-0.01262213,0.01286352,0, 00:00:03.5
37,-0.01789457,0.00971642,0.02375331,-0.02467860,-0.02172482,-0.04249418,-0.03413290,0.03783227,0.03746309,0.00272415,-0.00076461,-0.08244602,0.02828389,0.00044894,-0.03956616,0.00133338,-0.05309220,0.00052890,0.01976584,-0.01551883,0.01948647,-0.06031956,-0.06750276,-0.00612191,0.00142204,-0.00246960,0.00010026,-0.01182580,-0.00228896,-0.00958547,-0.01936955,0.00726201,-0.04997086,0.01682018,-0.00594479,-0.01395476,-0.00288104,-0.00433010,-0.00497785,-0.00014286,-0.01384153,-0.00327460,0.00890700,0.02363969,0.01221067,0.00012135,-0.00623295,-0.00173247,-0.00102927,0.00414235,-0.01245908,0.01344150,0, 00:00:03.6
38,-0.01501646,0.01199464,0.02451253,-0.02634809,-0.02232556,-0.03755069,-0.03011071,0.03554804,0.03696592,0.00491999,0.00036385,-0.07417040,0.02864481,0.00073690,-0.04072163,0.00068945,-0.04933363,0.00168951,0.01836088,-0.01569450,0.02181148,-0.05469889,-0.06096841,-0.00565633,0.00184318,-0.00276618,-0.00040478,-0.01162887,-0.00184044,-0.00998375,-0.01894827,0.00777512,-0.04368813,0.01798061,-0.00434461,-0.01121757,-0.00240628,-0.00325671,-0.00417948,0.00021792,-0.01442637,-0.00244887,0.00786019,0.02483733,0.01351257,0.00192464,-0.00540818,-0.00185981,-0.00028609,0.00475337,-0.01186192,0.01449187,0, 00:00:03.7
39,-0.01213106,0.01420799,0.02511892,-0.02758200,-0.02273757,-0.03321478,-0.02613883,0.03321621,0.03592720,0.00723774,0.00125708,-0.06614523,0.02909059,0.00132378,-0.04113190,0.00038655,-0.04560127,0.00307810,0.01709629,-0.01571448,0.02363357,-0.04872916,-0.05458289,-0.00519811,0.00233254,-0.00281838,-0.00067146,-0.01116656,-0.00133913,-0.01031700,-0.01843419,0.00847714,-0.03728214,0.01900592,-0.00297103,-0.00821846,-0.00175492,-0.00202294,-0.00336218,0.00067636,-0.01485091,-0.00149749,0.00662916,0.02596776,0.01501826,0.00389852,-0.00441230,-0.00193938,0.00051117,0.00536143,-0.01095004,0.01555007,0, 00:00:03.8
40,-0.00927545,0.01585820,0.02574552,-0.02880407,-0.02333259,-0.02978976,-0.02288557,0.03151916,0.03576145,0.00926491,0.00211171,-0.05749485,0.02936150,0.00205432,-0.04137869,0.00015486,-0.04213561,0.00453287,0.01708603,-0.01579231,0.02502019,-0.04269226,-0.04789821,-0.00476081,0.00274269,-0.00272694,-0.00077321,-0.01059032,-0.00080716,-0.01084233,-0.01775903,0.00944647,-0.03115159,0.01940880,-0.00163071,-0.00512540,-0.00078538,-0.00072019,-0.00263525,0.00089737,-0.01543558,-0.00067143,0.00576809,0.02659568,0.01616046,0.00583952,-0.00346157,-0.00201919,0.00121356,0.00586252,-0.01015821,0.01621270,0, 00:00:04.0
41,-0.00705374,0.01682439,0.02581934,-0.03043534,-0.02406250,-0.02643904,-0.02009824,0.02945651,0.03541507,0.01035710,0.00218715,-0.04962990,0.02914727,0.00224964,-0.04240823,-0.00040246,-0.03895056,0.00535714,0.01655266,-0.01614556,0.02502910,-0.03718404,-0.04250076,-0.00468020,0.00191201,-0.00318608,-0.00110080,-0.01050083,-0.00069557,-0.01173049,-0.01766830,0.00916630,-0.02557525,0.01738487,-0.00107487,-0.00310298,-0.00000161,-0.00001856,-0.00264237,0.00034610,-0.01687958,-0.00036399,0.00393455,0.02492285,0.01501842,0.00642068,-0.00337461,-0.00248322,0.00116622,0.00532242,-0.01102814,0.01588855,0, 00:00:04.0
42,-0.00541277,0.01733056,0.02567458,-0.03268987,-0.02505340,-0.02311043,-0.01788623,0.02687942,0.03483473,0.01036249,0.00160685,-0.04285508,0.02839144,0.00211126,-0.04452566,-0.00136037,-0.03611644,0.00533958,0.01524306,-0.01669760,0.02359942,-0.03206920,-0.03726805,-0.00498124,0.00009536,-0.00449237,-0.00193944,-0.01121018,-0.00103254,-0.01249862,-0.01806263,0.00730278,-0.02056873,0.01435465,-0.00110883,-0.00264995,0.00015815,-0.00008197,-0.00345393,-0.00076471,-0.01841791,-0.00053405,0.00126674,0.02206827,0.01276279,0.00575731,-0.00409503,-0.00329554,0.00034481,0.00382834,-0.01247744,0.01513510,0, 00:00:04.1
43,-0.00369904,0.01789059,0.02553416,-0.03496455,-0.02605329,-0.01960292,-0.01549485,0.02453881,0.03451151,0.01017833,0.00127139,-0.03570640,0.02769923,0.00183358,-0.04659281,-0.00248701,-0.03344329,0.00524891,0.01402940,-0.01671686,0.02299179,-0.02694179,-0.03174186,-0.00514419,-0.00101505,-0.00574753,-0.00291483,-0.01185773,-0.00133560,-0.01276003,-0.01762393,0.00660336,-0.01513634,0.01340213,-0.00078458,-0.00187026,0.00025305,-0.00012164,-0.00379278,-0.00116783,-0.01907205,-0.00045609,-0.00066603,0.02112693,0.01218630,0.00578105,-0.00434208,-0.00389531,-0.00009352,0.00298245,-0.01336157,0.01546719,0, 00:00:04.2
44,-0.00149678,0.01872187,0.02543365,-0.03657126,-0.02664810,-0.01629011,-0.01278439,0.02250975,0.03443247,0.01061520,0.00146796,-0.02715089,0.02722389,0.00198715,-0.04763005,-0.00348112,-0.03052286,0.00581163,0.01277047,-0.01607285,0.02275397,-0.02145034,-0.02525294,-0.00480456,-0.00096691,-0.00633118,-0.00352526,-0.01182433,-0.00119379,-0.01249401,-0.01652064,0.00589299,-0.00918826,0.01372138,0.00021069,0.00017162,0.00060753,0.00045368,-0.00348768,-0.00100729,-0.01893366,-0.00010933,-0.00205310,0.02162179,0.01295813,0.00704999,-0.00367330,-0.00399179,0.00028314,0.00323350,-0.01313553,0.01665097,0, 00:00:04.3
45,0.00082047,0.01954315,0.02538132,-0.03798562,-0.02701697,-0.01306504,-0.01003488,0.02046525,0.03402535,0.01133844,0.00209435,-0.01852163,0.02679167,0.00233208,-0.04808230,-0.00399175,-0.02759094,0.00665530,0.01149142,-0.01518349,0.02253722,-0.01596069,-0.01881918,-0.00430866,-0.00064572,-0.00650498,-0.00382913,-0.01139782,-0.00076938,-0.01182327,-0.01524710,0.00582822,-0.00326801,0.01429187,0.00148814,0.00268900,0.00115231,0.00137619,-0.00296406,-0.00072622,-0.01864355,0.00034579,-0.00317990,0.02210342,0.01377603,0.00853316,-0.00279598,-0.00391129,0.00089563,0.00358317,-0.01259813,0.01822031,0, 00:00:04.5
46,0.00322536,0.02023029,0.02556296,-0.03920178,-0.02746496,-0.00973321,-0.00721506,0.01849153,0.03346762,0.01246098,0.00277087,-0.01041119,0.02650199,0.00251466,-0.04833011,-0.00430389,-0.02482738,0.00762167,0.01039946,-0.01424374,0.02265756,-0.01035552,-0.01266457,-0.00371199,-0.00019967,-0.00653474,-0.00401438,-0.01085980,-0.00032912,-0.01094053,-0.01382669,0.00572693,0.00265085,0.01491501,0.00271407,0.00531109,0.00191715,0.00234984,-0.00232194,-0.00034238,-0.01836832,0.00066619,-0.00437117,0.02265569,0.01465700,0.00996412,-0.00179739,-0.00378459,0.00152538,0.00399346,-0.01186996,0.02000565,0, 00:00:04.5
47,0.00551791,0.02092529,0.02559942,-0.04056487,-0.02812249,-0.00665114,-0.00444594,0.01640694,0.03270964,0.01337544,0.00326993,-0.00269881,0.02619123,0.00266381,-0.04868328,-0.00462154,-0.02196780,0.00841440,0.00926695,-0.01387289,0.02243119,-0.00492263,-0.00717552,-0.00340640,-0.00005298,-0.00664191,-0.00422857,-0.01040504,-0.00001186,-0.01081244,-0.01286133,0.00496688,0.00821535,0.01393748,0.00354277,0.00752523,0.00264395,0.00319041,-0.00193408,-0.00032914,-0.01879132,0.00062971,-0.00615687,0.02152850,0.01412587,0.01072308,-0.00116165,-0.00380747,0.00186842,0.00401406,-0.01101069,0.02102846,0, 00:00:04.6
48,0.00710941,0.02109065,0.02550511,-0.04234657,-0.02933999,-0.00371604,-0.00228575,0.01377671,0.03112618,0.01377329,0.00304816,0.00431460,0.02537507,0.00236677,-0.05007539,-0.00525416,-0.01969831,0.00852898,0.00771598,-0.01410393,0.02142697,-0.00004316,-0.00192659,-0.00363750,-0.00140018,-0.00752432,-0.00476205,-0.01062196,-0.00009311,-0.01170084,-0.01277004,0.00418044,0.01288121,0.01054029,0.00341240,0.00831692,0.00291417,0.00337592,-0.00226431,-0.00138758,-0.02003346,0.00008877,-0.00905771,0.01788175,0.01152201,0.00991720,-0.00165498,-0.00447264,0.00128025,0.00279752,-0.01079305,0.02007759,0, 00:00:04.7
49,0.00846477,0.02111352,0.02507329,-0.04466132,-0.03085444,-0.00106320,-0.00028745,0.01106747,0.02984803,0.01374300,0.00244605,0.01154749,0.02433698,0.00179896,-0.05217806,-0.00652072,-0.01765540,0.00832810,0.00619353,-0.01468844,0.02051740,0.00482552,0.00323058,-0.00402220,-0.00315919,-0.00880853,-0.00566634,-0.01135824,-0.00036270,-0.01275275,-0.01269479,0.00315816,0.01751268,0.00773940,0.00330807,0.00852590,0.00291072,0.00309062,-0.00284247,-0.00241294,-0.02103997,-0.00052140,-0.01208853,0.01474249,0.00923047,0.00875697,-0.00246761,-0.00536897,0.00028800,0.00145376,-0.01044026,0.01897021,0, 00:00:04.8
50,0.01029811,0.02166642,0.02489980,-0.04662392,-0.03208562,0.00157964,0.00211668,0.00883499,0.02898359,0.01403161,0.00251699,0.01854837,0.02367507,0.00147656,-0.05362297,-0.00749607,-0.01549397,0.00871803,0.00535569,-0.01473493,0.01984956,0.01002295,0.00896662,-0.00386099,-0.00386440,-0.00957946,-0.00634803,-0.01163672,-0.00022887,-0.01341427,-0.01187663,0.00309116,0.02283861,0.00759346,0.00380405,0.00988423,0.00309821,0.00321977,-0.00278461,-0.00251196,-0.02119481,-0.00053613,-0.01408300,0.01414964,0.00915922,0.00897297,-0.00239167,-0.00589861,0.00008369,0.00123379,-0.00893658,0.01885217,0, 00:00:05.0
51,0.01247478,0.02224323,0.02483088,-0.04797901,-0.03301451,0.00457879,0.00480644,0.00686928,0.02845511,0.01467063,0.00303187,0.02717031,0.02323257,0.00172475,-0.05423770,-0.00794611,-0.01287174,0.00958034,0.00464031,-0.01433381,0.01996725,0.01537413,0.01467219,-0.00346567,-0.00375101,-0.00980780,-0.00657324,-0.01132932,0.00021190,-0.01377716,-0.01085975,0.00212117,0.02838597,0.00794793,0.00469897,0.01209263,0.00357910,0.00393950,-0.00223410,-0.00231681,-0.02112045,-0.00023357,-0.01580989,0.01412555,0.00957962,0.00994039,-0.00167631,-0.00605226,0.00045357,0.00152196,-0.00707960,0.01918848,0, 00:00:05.0
52,0.01488437,0.02320469,0.02493217,-0.04915678,-0.03370294,0.00761136,0.00753102,0.00491621,0.02795035,0.01545578,0.00373268,0.03483345,0.02290895,0.00188425,-0.05452523,-0.00818251,-0.01002824,0.01067816,0.00374524,-0.01390859,0.02028839,0.02087061,0.02093737,-0.00291463,-0.00343037,-0.00980291,-0.00673271,-0.01078860,0.00079265,-0.01372023,-0.00969061,0.00153566,0.03395590,0.00825302,0.00556888,0.01441702,0.00422180,0.00489315,-0.00159728,-0.00212897,-0.02100375,0.00016170,-0.01755996,0.01432373,0.01013129,0.01099329,-0.00087654,-0.00598164,0.00096342,0.00188327,-0.00529206,0.01982306,0, 00:00:05.1
53,0.01718570,0.02431696,0.02513089,-0.05022611,-0.03424699,0.01079594,0.01032806,0.00298767,0.02743850,0.01654505,0.00443280,0.04292227,0.02260012,0.00201186,-0.05463966,-0.00860535,-0.00721494,0.01178955,0.00309730,-0.01365338,0.02048969,0.02636777,0.02726212,-0.00243820,-0.00300856,-0.00963989,-0.00679871,-0.01011078,0.00136250,-0.01348126,-0.00854027,0.00132753,0.03953988,0.00837381,0.00663801,0.01692526,0.00493765,0.00585972,-0.00093607,-0.00195280,-0.02100595,0.00073763,-0.01951978,0.01473263,0.01042236,0.01213971,-0.00001472,-0.00582713,0.00152697,0.00235917,-0.00334809,0.02123035,0, 00:00:05.2
54,0.01904206,0.02463179,0.02485916,-0.05146374,-0.03483623,0.01375973,0.01296267,0.00072719,0.02657375,0.01717359,0.00475205,0.05012194,0.02175506,0.00220415,-0.05503944,-0.00900574,-0.00458334,0.01248380,0.00208493,-0.01374880,0.02005815,0.03122519,0.03330274,-0.00211117,-0.00329214,-0.00981488,-0.00704845,-0.00975187,0.00161583,-0.01379698,-0.00805437,0.00021636,0.04456998,0.00629173,0.00704749,0.01861770,0.00547446,0.00648593,-0.00082663,-0.00224560,-0.02161623,0.00101949,-0.02333468,0.01349713,0.00848522,0.01226307,0.00011593,-0.00602287,0.00151471,0.00191602,-0.00208680,0.02292266,0, 00:00:05.3
55,0.01991340,0.02404417,0.02343581,-0.05262905,-0.03500604,0.01660616,0.01515362,-0.00243324,0.02510838,0.01758536,0.00463201,0.05487326,0.01966367,0.00197671,-0.05539263,-0.00967888,-0.00228862,0.01253213,0.00033837,-0.01410293,0.01889572,0.03496455,0.03783373,-0.00227947,-0.00475370,-0.01062591,-0.00773245,-0.01002642,0.00137339,-0.01460807,-0.00807955,-0.00126042,0.04811075,0.00312492,0.00706425,0.01900660,0.00555127,0.00644674,-0.00129313,-0.00315934,-0.02229233,0.00111537,-0.02702748,0.01108268,0.00554937,0.01106433,-0.00055125,-0.00669657,0.00076448,0.00051146,-0.00177990,0.02359480,0, 00:00:05.5
56,0.02084728,0.02325349,0.02156945,-0.05298263,-0.03458401,0.01975574,0.01744495,-0.00556007,0.02340747,0.01812437,0.00480898,0.06040053,0.01721364,0.00161381,-0.05489374,-0.01058590,0.00008254,0.01265677,-0.00090398,-0.01402596,0.01780938,0.03890030,0.04189672,-0.00222361,-0.00574725,-0.01136030,-0.00853036,-0.01025562,0.00124695,-0.01530880,-0.00727293,-0.00186980,0.05133655,0.00177997,0.00735322,0.01980474,0.00548347,0.00634708,-0.00142152,-0.00355079,-0.02255186,0.00128605,-0.02790765,0.00915239,0.00459947,0.01057471,-0.00074323,-0.00714611,0.00031901,-0.00002692,-0.00161837,0.02285042,0, 00:00:05.5
57,0.02239978,0.02273466,0.02010460,-0.05294131,-0.03381119,0.02297019,0.02022686,-0.00804527,0.02210767,0.01870987,0.00572306,0.06783678,0.01506065,0.00155199,-0.05358405,-0.01108189,0.00296542,0.01352355,-0.00173234,-0.01347942,0.01756579,0.04330063,0.04686360,-0.00169734,-0.00557832,-0.01138283,-0.00882873,-0.00980862,0.00161175,-0.01530029,-0.00590157,-0.00268930,0.05531359,0.00219945,0.00810903,0.02180226,0.00571714,0.00691384,-0.00095948,-0.00333998,-0.02187942,0.00177365,-0.02758534,0.00903677,0.00518781,0.01140951,-0.00006907,-0.00709402,0.00069197,0.00036898,-0.00047233,0.02240002,0, 00:00:05.6
58,0.02405697,0.02248042,0.01884693,-0.05254747,-0.03292584,0.02606996,0.02304797,-0.01039012,0.02099364,0.01956769,0.00673612,0.07410318,0.01298659,0.00182162,-0.05173577,-0.01147219,0.00614208,0.01466760,-0.00255345,-0.01254802,0.01797894,0.04775891,0.05236147,-0.00108834,-0.00500339,-0.01100728,-0.00890056,-0.00895850,0.00216460,-0.01480261,-0.00423596,-0.00370900,0.05927079,0.00265229,0.00915677,0.02420842,0.00623517,0.00785117,-0.00026229,-0.00272748,-0.02094693,0.00256234,-0.02679905,0.00894863,0.00596385,0.01254558,0.00089075,-0.00679162,0.00130718,0.00110945,0.00115265,0.02210580,0, 00:00:05.7
59,0.02566756,0.02213571,0.01719713,-0.05140499,-0.03143486,0.02933712,0.02593328,-0.01288757,0.01979602,0.02035375,0.00774118,0.08059745,0.01085801,0.00227602,-0.04913934,-0.01164958,0.00922585,0.01598120,-0.00365762,-0.01164359,0.01831281,0.05198405,0.05760473,-0.00053600,-0.00443528,-0.01052100,-0.00886089,-0.00799246,0.00282579,-0.01414803,-0.00254445,-0.00340319,0.06306776,0.00315895,0.01042139,0.02675151,0.00682974,0.00888845,0.00060331,-0.00203567,-0.01981896,0.00363759,-0.02608608,0.00884762,0.00682059,0.01378352,0.00193773,-0.00636535,0.00200094,0.00186909,0.00243301,0.02167008,0, 00:00:05.8
60,0.02700986,0.02155900,0.01544067,-0.04939896,-0.02896700,0.03269732,0.02890875,-0.01584503,0.01827896,0.02105157,0.00835511,0.08656155,0.00848324,0.00252111,-0.04541363,-0.01158173,0.01227985,0.01714445,-0.00517363,-0.01105915,0.01825733,0.05595014,0.06245484,-0.00010701,-0.00411895,-0.01003455,-0.00877107,-0.00705696,0.00328543,-0.01391567,-0.00123371,-0.00404637,0.06651382,0.00204608,0.01137324,0.02883808,0.00751452,0.00984170,0.00141077,-0.00173133,-0.01919827,0.00461558,-0.02569242,0.00703739,0.00651066,0.01438055,0.00269325,-0.00606596,0.00240014,0.00205511,0.00311773,0.02051839,0, 00:00:06.0
61,0.02792457,0.02055727,0.01343451,-0.04714984,-0.02633497,0.03611083,0.03139186,-0.01958287,0.01612901,0.02125074,0.00820652,0.09255020,0.00580465,0.00235789,-0.04227013,-0.01196458,0.01522609,0.01738887,-0.00724154,-0.01121217,0.01731005,0.05920151,0.06619950,-0.00025957,-0.00507867,-0.01028936,-0.00908301,-0.00681919,0.00314778,-0.01475744,-0.00083479,-0.00527854,0.06912196,-0.00137041,0.01145960,0.02917049,0.00780319,0.01011412,0.00148125,-0.00220185,-0.01972548,0.00476799,-0.02680225,0.00285466,0.00371646,0.01338843,0.00233459,-0.00631752,0.00188550,0.00107138,0.00267151,0.01856551,0, 00:00:06.0
62,0.02852657,0.01934076,0.01112224,-0.04486307,-0.02360970,0.03901469,0.03304454,-0.02374409,0.01361852,0.02113922,0.00789989,0.09831887,0.00281066,0.00199378,-0.03934168,-0.01264791,0.01792382,0.01718539,-0.00965001,-0.01151203,0.01601209,0.06161535,0.06995099,-0.00050314,-0.00660286,-0.01103066,-0.00970178,-0.00702756,0.00278320,-0.01560096,-0.00065343,-0.00728702,0.07076731,-0.00427535,0.01173094,0.02892941,0.00769263,0.00986385,0.00116357,-0.00290377,-0.02036165,0.00481716,-0.02803527,-0.00050064,0.00104283,0.01237971,0.00169471,-0.00674745,0.00104115,-0.00016135,0.00224013,0.01691946,0, 00:00:06.1
63,0.02948718,0.01831163,0.00930055,-0.04179365,-0.02050425,0.04190939,0.03489223,-0.02747502,0.01150440,0.02131129,0.00814126,0.10410207,0.00022304,0.00164820,-0.03529341,-0.01312059,0.02058327,0.01769000,-0.01155373,-0.01146079,0.01526287,0.06362661,0.07372613,-0.00022343,-0.00690082,-0.01118789,-0.01006570,-0.00669100,0.00290183,-0.01619755,-0.00004805,-0.00864489,0.07249820,-0.00441728,0.01319226,0.03006913,0.00786876,0.01008366,0.00157877,-0.00271803,-0.02026967,0.00527901,-0.02787251,-0.00126659,0.00072383,0.01283909,0.00205738,-0.00681042,0.00093325,-0.00020785,0.00283102,0.01616191,0, 00:00:06.2
64,0.03097278,0.01795498,0.00786229,-0.03822625,-0.01710439,0.04506431,0.03743880,-0.03078868,0.00963814,0.02182004,0.00907291,0.11048561,-0.00177986,0.00165785,-0.03018912,-0.01327614,0.02378181,0.01888843,-0.01316575,-0.01104007,0.01497330,0.06656912,0.07798889,0.00048260,-0.00647799,-0.01077137,-0.00995511,-0.00567195,0.00343965,-0.01633026,0.00087341,-0.00849629,0.07508147,-0.00391521,0.01508692,0.03215412,0.00835384,0.01092225,0.00260924,-0.00195929,-0.01978808,0.00604264,-0.02702168,-0.00129811,0.00141495,0.01405423,0.00303065,-0.00646481,0.00146397,0.00047484,0.00408360,0.01556330,0, 00:00:06.3
65,0.03282386,0.01777620,0.00635937,-0.03443373,-0.01352303,0.04843051,0.04018184,-0.03391870,0.00792871,0.02247930,0.01035836,0.11648972,-0.00354244,0.00182276,-0.02490105,-0.01315729,0.02734078,0.02026699,-0.01469554,-0.01057632,0.01474670,0.07024970,0.08299467,0.00124377,-0.00580494,-0.01013380,-0.00964344,-0.00439631,0.00411759,-0.01655047,0.00193445,-0.00854069,0.07843082,-0.00329285,0.01666159,0.03445242,0.00891466,0.01199315,0.00375975,-0.00133194,-0.01916768,0.00689047,-0.02594714,-0.00137814,0.00224023,0.01537952,0.00407266,-0.00598836,0.00209989,0.00122776,0.00545356,0.01500649,0, 00:00:06.5
66,0.03466192,0.01775235,0.00481396,-0.03066435,-0.00982187,0.05167637,0.04296942,-0.03702974,0.00658238,0.02296434,0.01115219,0.12328988,-0.00523961,0.00190241,-0.01962048,-0.01325619,0.03077116,0.02164197,-0.01653888,-0.01015806,0.01430711,0.07410821,0.08809716,0.00196183,-0.00492020,-0.00939690,-0.00927374,-0.00303876,0.00486917,-0.01658099,0.00283882,-0.00820668,0.08213099,-0.00324773,0.01791873,0.03672960,0.00962156,0.01305191,0.00502110,-0.00056498,-0.01867322,0.00784333,-0.02549109,-0.00195139,0.00270534,0.01670821,0.00516059,-0.00553214,0.00270075,0.00186201,0.00681549,0.01419693,0, 00:00:06.5
67,0.03617252,0.01719612,0.00304958,-0.02726490,-0.00627917,0.05488677,0.04533617,-0.04069366,0.00497009,0.02314845,0.01135823,0.12973234,-0.00725936,0.00171528,-0.01508414,-0.01339418,0.03399433,0.02240579,-0.01915722,-0.01032417,0.01341005,0.07771640,0.09232547,0.00214315,-0.00518077,-0.00914406,-0.00912910,-0.00211701,0.00525087,-0.01717192,0.00283016,-0.00876480,0.08539557,-0.00565241,0.01845287,0.03799498,0.01004535,0.01366878,0.00580666,-0.00052160,-0.01912107,0.00849424,-0.02584858,-0.00513786,0.00089430,0.01674687,0.00539810,-0.00544652,0.00268424,0.00126670,0.00650960,0.01199985,0, 00:00:06.6
68,0.03715249,0.01631164,0.00085450,-0.02418147,-0.00309775,0.05802890,0.04692304,-0.04499274,0.00277528,0.02299925,0.01125199,0.13539565,-0.00973820,0.00124941,-0.01166462,-0.01386835,0.03647567,0.02239018,-0.02205175,-0.01105914,0.01144009,0.08145830,0.09662122,0.00191804,-0.00673852,-0.00970422,-0.00955907,-0.00201567,0.00513995,-0.01831698,0.00239846,-0.01075159,0.08870000,-0.00924143,0.01838051,0.03773973,0.01006859,0.01354718,0.00573505,-0.00110470,-0.02001081,0.00863511,-0.02682026,-0.01003706,-0.00211009,0.01552881,0.00470332,-0.00585387,0.00182806,-0.00021228,0.00460555,0.00864890,0, 00:00:06.7
69,0.03850093,0.01581447,-0.00105952,-0.02109981,0.00002524,0.06107746,0.04863249,-0.04914977,0.00049877,0.02292345,0.01121914,0.14268731,-0.01196902,0.00063895,-0.00817798,-0.01450255,0.03887113,0.02251153,-0.02489227,-0.01139057,0.01063959,0.08596845,0.10189846,0.00207449,-0.00775037,-0.01022655,-0.01001406,-0.00186141,0.00507933,-0.01890850,0.00239466,-0.01211830,0.09311955,-0.01048629,0.01878479,0.03789093,0.01005536,0.01346166,0.00588586,-0.00147950,-0.01990513,0.00897882,-0.02722778,-0.01245912,-0.00316786,0.01516022,0.00446392,-0.00607912,0.00126624,-0.00099737,0.00382375,0.00659858,0, 00:00:06.8
70,0.04049946,0.01608871,-0.00269782,-0.01745085,0.00339948,0.06399507,0.05076173,-0.05287490,-0.00162652,0.02359168,0.01193341,0.15097542,-0.01368102,0.00073308,-0.00363789,-0.01484871,0.04168860,0.02337573,-0.02712570,-0.01109703,0.01068512,0.09127451,0.10803440,0.00269296,-0.00747144,-0.00994601,-0.00999384,-0.00092887,0.00549269,-0.01882025,0.00305018,-0.01285178,0.09839174,-0.01011485,0.01979583,0.03946202,0.01046651,0.01412798,0.00696274,-0.00115708,-0.01933956,0.00971852,-0.02729691,-0.01229709,-0.00255207,0.01619778,0.00518004,-0.00581636,0.00162356,-0.00061921,0.00461465,0.00602175,0, 00:00:07.0
71,0.04258904,0.01664279,-0.00414027,-0.01329547,0.00715849,0.06685750,0.05320635,-0.05643072,-0.00381366,0.02480794,0.01282585,0.15831101,-0.01523706,0.00082666,0.00176962,-0.01497918,0.04491067,0.02470182,-0.02897198,-0.01073089,0.01089380,0.09686872,0.11412007,0.00345866,-0.00693834,-0.00927193,-0.00974001,0.00043922,0.00614482,-0.01851624,0.00405020,-0.01335009,0.10352218,-0.00928386,0.02106298,0.04152576,0.01118213,0.01518876,0.00838947,-0.00044142,-0.01869713,0.01033123,-0.02732331,-0.01173618,-0.00166027,0.01757040,0.00624596,-0.00533422,0.00230857,0.00008160,0.00534507,0.00643555,0, 00:00:07.0
72,0.04459560,0.01689749,-0.00566393,-0.00875968,0.01102806,0.06960269,0.05584415,-0.05948129,-0.00625458,0.02608273,0.01360491,0.16483901,-0.01683800,0.00094666,0.00778252,-0.01490929,0.04842871,0.02617803,-0.03033505,-0.01051404,0.01100512,0.10190850,0.11954731,0.00436692,-0.00617811,-0.00846517,-0.00933131,0.00197706,0.00691443,-0.01828010,0.00491248,-0.01237621,0.10789904,-0.00832321,0.02238137,0.04374262,0.01204268,0.01645484,0.00989214,0.00034565,-0.01823857,0.01104313,-0.02697631,-0.01104814,-0.00051322,0.01885927,0.00741856,-0.00478353,0.00308087,0.00078485,0.00623449,0.00729881,0, 00:00:07.1
73,0.04623735,0.01627149,-0.00773610,-0.00428021,0.01501657,0.07247847,0.05850629,-0.06225813,-0.00834754,0.02717607,0.01414754,0.16998222,-0.01874467,0.00085458,0.01384169,-0.01458622,0.05186183,0.02756220,-0.03168195,-0.01048032,0.01101223,0.10594927,0.12320720,0.00519324,-0.00560361,-0.00772358,-0.00871290,0.00342080,0.00765662,-0.01862464,0.00541606,-0.01317168,0.11110958,-0.00900375,0.02316013,0.04571212,0.01300108,0.01765352,0.01109699,0.00065690,-0.01847638,0.01167571,-0.02686669,-0.01184237,-0.00076836,0.01943597,0.00829351,-0.00440528,0.00363152,0.00095473,0.00677591,0.00769632,0, 00:00:07.2
74,0.04710865,0.01469615,-0.00975275,-0.00029648,0.01863076,0.07517371,0.06048635,-0.06534287,-0.01040440,0.02798302,0.01381205,0.17417821,-0.02122974,0.00027262,0.01850692,-0.01480082,0.05462986,0.02790178,-0.03351808,-0.01116964,0.01043972,0.10882768,0.12553123,0.00540860,-0.00631903,-0.00764218,-0.00845350,0.00413125,0.00790447,-0.01966301,0.00509390,-0.01491466,0.11308767,-0.01211193,0.02307251,0.04606164,0.01342849,0.01800987,0.01136316,0.00014849,-0.01977682,0.01159189,-0.02822334,-0.01547685,-0.00360920,0.01833447,0.00804932,-0.00462738,0.00319650,-0.00010829,0.00601108,0.00710994,0, 00:00:07.3
75,0.04795334,0.01300409,-0.01146380,0.00328344,0.02179615,0.07756718,0.06198833,-0.06848342,-0.01253982,0.02914245,0.01351036,0.17714496,-0.02378939,-0.00061301,0.02230710,-0.01512493,0.05686654,0.02768442,-0.03530069,-0.01195890,0.01054598,0.11130105,0.12742136,0.00541629,-0.00765890,-0.00806006,-0.00861197,0.00418386,0.00782849,-0.02061064,0.00462728,-0.01748236,0.11430520,-0.01484277,0.02273133,0.04565882,0.01330583,0.01776409,0.01122396,-0.00037990,-0.02095342,0.01129223,-0.02953046,-0.01884944,-0.00625659,0.01676128,0.00743969,-0.00513601,0.00234092,-0.00149536,0.00522506,0.00664633,0, 00:00:07.5
76,0.04932349,0.01218889,-0.01328218,0.00725831,0.02518267,0.08019824,0.06391865,-0.07107428,-0.01441898,0.03073737,0.01383698,0.17997955,-0.02588828,-0.00121202,0.02701527,-0.01525572,0.05955661,0.02831640,-0.03645119,-0.01210642,0.01106479,0.11364766,0.12933148,0.00591541,-0.00785767,-0.00791880,-0.00856515,0.00472956,0.00816073,-0.02102693,0.00491732,-0.01778936,0.11566710,-0.01494107,0.02297584,0.04648535,0.01348835,0.01805509,0.01187407,-0.00040295,-0.02112122,0.01154416,-0.02970175,-0.01968239,-0.00659767,0.01649251,0.00766599,-0.00526387,0.00227799,-0.00186349,0.00557417,0.00708995,0, 00:00:07.5
77,0.05090616,0.01193572,-0.01477371,0.01167292,0.02885618,0.08275457,0.06631099,-0.07304275,-0.01610389,0.03290363,0.01439398,0.18335094,-0.02757849,-0.00142905,0.03268645,-0.01504460,0.06276463,0.02946265,-0.03700321,-0.01202456,0.01213092,0.11589933,0.13140003,0.00664239,-0.00733768,-0.00705157,-0.00827387,0.00595257,0.00883859,-0.02098812,0.00548297,-0.01767940,0.11701881,-0.01429244,0.02371475,0.04819120,0.01400818,0.01880769,0.01295704,0.00018747,-0.02093963,0.01214621,-0.02915193,-0.01977080,-0.00602433,0.01698121,0.00849901,-0.00503615,0.00276189,-0.00161260,0.00633821,0.00798117,0, 00:00:07.6
78,0.05264574,0.01187897,-0.01607981,0.01647160,0.03261773,0.08541017,0.06871560,-0.07457301,-0.01734577,0.03521667,0.01496584,0.18610737,-0.02901193,-0.00135261,0.03875302,-0.01467354,0.06602920,0.03086356,-0.03730219,-0.01168550,0.01316438,0.11775150,0.13327135,0.00763365,-0.00649543,-0.00595579,-0.00792093,0.00747357,0.00961167,-0.02088198,0.00640617,-0.01722191,0.11798787,-0.01356185,0.02457437,0.05011743,0.01462864,0.01967710,0.01431844,0.00072714,-0.02068479,0.01296380,-0.02863061,-0.01951309,-0.00518419,0.01781419,0.00945686,-0.00469066,0.00336844,-0.00120206,0.00716219,0.00926031,0, 00:00:07.7
79,0.05440443,0.01264970,-0.01693449,0.02154624,0.03628388,0.08760991,0.07079323,-0.07545578,-0.01818896,0.03717214,0.01531181,0.18823847,-0.02992710,-0.00111840,0.04520792,-0.01402524,0.06957628,0.03235340,-0.03662180,-0.01155454,0.01410645,0.11926483,0.13437933,0.00847558,-0.00555707,-0.00483981,-0.00746797,0.00904530,0.01045330,-0.02055073,0.00733973,-0.01798658,0.11822706,-0.01334793,0.02553632,0.05216109,0.01524603,0.02067388,0.01553775,0.00086259,-0.02045442,0.01372199,-0.02781953,-0.01959720,-0.00447385,0.01870382,0.01048948,-0.00428090,0.00400940,-0.00077850,0.00796446,0.01057288,0, 00:00:07.8
80,0.05555484,0.01323070,-0.01795200,0.02634543,0.03970563,0.08936916,0.07248436,-0.07613539,-0.01929081,0.03872242,0.01511672,0.18836114,-0.03064448,-0.00110744,0.05136059,-0.01355220,0.07296243,0.03333654,-0.03593139,-0.01179456,0.01390561,0.11958066,0.13428999,0.00889378,-0.00560521,-0.00410130,-0.00724802,0.01024272,0.01096223,-0.02092501,0.00762254,-0.02028826,0.11692373,-0.01571488,0.02583887,0.05326145,0.01567616,0.02120737,0.01618305,0.00042296,-0.02116758,0.01401672,-0.02779356,-0.02233294,-0.00592874,0.01845354,0.01076797,-0.00427893,0.00403715,-0.00133946,0.00763821,0.01087311,0, 00:00:08.0
81,0.05578443,0.01359957,-0.01910589,0.03048432,0.04252522,0.09082358,0.07334075,-0.07715940,-0.02113780,0.03953052,0.01396887,0.18553421,-0.03122696,-0.00146530,0.05648243,-0.01331576,0.07568924,0.03353934,-0.03545070,-0.01243254,0.01298607,0.11861258,0.13255990,0.00891298,-0.00698655,-0.00426962,-0.00750543,0.01051942,0.01092260,-0.02206430,0.00730021,-0.02196951,0.11417009,-0.01927727,0.02541798,0.05290838,0.01561041,0.02093622,0.01610885,-0.00060999,-0.02253008,0.01390982,-0.02876596,-0.02666380,-0.00862818,0.01700210,0.01006436,-0.00482355,0.00314420,-0.00278084,0.00655657,0.01025533,0, 00:00:08.0
82,0.05596384,0.01405367,-0.02016350,0.03467879,0.04508770,0.09198795,0.07431805,-0.07811006,-0.02288506,0.04035236,0.01308794,0.18260014,-0.03170782,-0.00163919,0.06164908,-0.01338167,0.07826067,0.03403504,-0.03456519,-0.01265012,0.01264648,0.11740530,0.13106616,0.00908128,-0.00788787,-0.00446867,-0.00787082,0.01076405,0.01100368,-0.02255370,0.00737370,-0.02120186,0.11134244,-0.02050792,0.02544052,0.05306049,0.01553354,0.02070000,0.01629404,-0.00111137,-0.02297607,0.01406917,-0.02905323,-0.02851281,-0.00938997,0.01628701,0.00973237,-0.00523596,0.00256556,-0.00361181,0.00639955,0.01046897,0, 00:00:08.1
83,0.05649294,0.01452667,-0.02108335,0.03896322,0.04804194,0.09355861,0.07576139,-0.07871171,-0.02401067,0.04165752,0.01296807,0.18145366,-0.03211294,-0.00136624,0.06791131,-0.01326748,0.08107186,0.03549890,-0.03309357,-0.01236974,0.01218304,0.11652446,0.12987070,0.00958714,-0.00755100,-0.00389629,-0.00780476,0.01182697,0.01168129,-0.02222883,0.00823657,-0.02137471,0.10930160,-0.02021261,0.02636699,0.05460547,0.01604617,0.02125964,0.01772857,-0.00077782,-0.02286271,0.01473594,-0.02853443,-0.02875523,-0.00858379,0.01679163,0.01024573,-0.00529198,0.00273912,-0.00333030,0.00735931,0.01148027,0, 00:00:08.2
84,0.05713084,0.01461965,-0.02220450,0.04345838,0.05145978,0.09571760,0.07754210,-0.07955987,-0.02444856,0.04300558,0.01331715,0.18206857,-0.03276320,-0.00117040,0.07415275,-0.01301766,0.08454174,0.03710090,-0.03232432,-0.01219544,0.01240165,0.11678482,0.12946601,0.01019536,-0.00685903,-0.00296873,-0.00749614,0.01323134,0.01267103,-0.02224796,0.00903280,-0.02183542,0.10845640,-0.01975680,0.02736153,0.05650629,0.01669703,0.02221258,0.01907512,-0.00033636,-0.02259278,0.01568691,-0.02793346,-0.02864061,-0.00781301,0.01773211,0.01108069,-0.00508933,0.00323548,-0.00270252,0.00856899,0.01282077,0, 00:00:08.3
85,0.05805644,0.01468474,-0.02300302,0.04801357,0.05525505,0.09802212,0.07928198,-0.08093776,-0.02509583,0.04383954,0.01399526,0.18268849,-0.03359910,-0.00122332,0.08003937,-0.01251741,0.08741824,0.03851860,-0.03270615,-0.01248378,0.01296205,0.11744946,0.12946054,0.01078600,-0.00584793,-0.00193980,-0.00704179,0.01480838,0.01374956,-0.02224542,0.00964185,-0.02193104,0.10832915,-0.01902715,0.02851988,0.05851749,0.01739035,0.02331161,0.02038803,0.00026567,-0.02258110,0.01671787,-0.02715076,-0.02832622,-0.00703790,0.01895517,0.01210069,-0.00468727,0.00389957,-0.00197094,0.00968175,0.01438607,0, 00:00:08.5
86,0.05904662,0.01514831,-0.02377645,0.05243271,0.05908474,0.09968823,0.08049844,-0.08243378,-0.02587377,0.04515084,0.01453313,0.18367605,-0.03416381,-0.00111788,0.08587430,-0.01205794,0.08924723,0.03980880,-0.03336119,-0.01312412,0.01307188,0.11827596,0.12988891,0.01121251,-0.00504993,-0.00099439,-0.00653162,0.01642993,0.01467558,-0.02256023,0.00983868,-0.02214914,0.10823207,-0.01932954,0.02956344,0.06028859,0.01815043,0.02439804,0.02163568,0.00055896,-0.02302275,0.01770838,-0.02648249,-0.02913227,-0.00699510,0.01988262,0.01292692,-0.00430011,0.00440755,-0.00166317,0.01017179,0.01543690,0, 00:00:08.5
87,0.05941135,0.01508039,-0.02489410,0.05636111,0.06252591,0.10109566,0.08118404,-0.08443633,-0.02723365,0.04535323,0.01430744,0.18380930,-0.03510340,-0.00142612,0.09078022,-0.01213224,0.09071977,0.04032109,-0.03443771,-0.01432660,0.01258195,0.11884110,0.12935117,0.01125373,-0.00540510,-0.00068463,-0.00635901,0.01737842,0.01515316,-0.02384084,0.00898460,-0.02364771,0.10769857,-0.02182787,0.02956566,0.06051505,0.01850721,0.02481852,0.02200066,-0.00002206,-0.02427702,0.01817736,-0.02706858,-0.03211448,-0.00917254,0.01920192,0.01270600,-0.00442058,0.00404307,-0.00267435,0.00954301,0.01534915,0, 00:00:08.6
88,0.05951176,0.01482886,-0.02597035,0.06002171,0.06564301,0.10240482,0.08173793,-0.08666430,-0.02867182,0.04565037,0.01380723,0.18409607,-0.03612744,-0.00208597,0.09497584,-0.01240756,0.09194900,0.04035360,-0.03567075,-0.01568767,0.01169959,0.11940501,0.12871557,0.01108258,-0.00644262,-0.00085825,-0.00652399,0.01774454,0.01535386,-0.02525662,0.00812722,-0.02484304,0.10706542,-0.02376217,0.02936337,0.06010057,0.01851004,0.02474043,0.02197547,-0.00051417,-0.02542976,0.01844295,-0.02767954,-0.03461500,-0.01090797,0.01815458,0.01213515,-0.00475775,0.00334414,-0.00387820,0.00897383,0.01524115,0, 00:00:08.7
89,0.06019195,0.01505104,-0.02685642,0.06405420,0.06898426,0.10358436,0.08258860,-0.08842093,-0.02950539,0.04637710,0.01431395,0.18604562,-0.03690898,-0.00262333,0.09984915,-0.01253096,0.09352917,0.04098479,-0.03660471,-0.01643279,0.01174180,0.12028623,0.12900922,0.01131309,-0.00635293,-0.00052376,-0.00659065,0.01868383,0.01594942,-0.02576892,0.00795737,-0.02534982,0.10738749,-0.02307108,0.03006571,0.06096672,0.01869355,0.02514575,0.02267620,-0.00017277,-0.02578672,0.01916682,-0.02719011,-0.03433001,-0.01050924,0.01849749,0.01245565,-0.00456224,0.00348689,-0.00388272,0.00954303,0.01603455,0, 00:00:08.8
90,0.06125660,0.01638242,-0.02740280,0.06809510,0.07254836,0.10502613,0.08374940,-0.09014111,-0.03046256,0.04709921,0.01548267,0.18810537,-0.03714144,-0.00285108,0.10517413,-0.01260007,0.09496702,0.04203546,-0.03792497,-0.01713141,0.01230462,0.12177163,0.12994255,0.01169782,-0.00549661,0.00033968,-0.00646072,0.02024086,0.01683158,-0.02608255,0.00773560,-0.02581693,0.10872620,-0.02185865,0.03131258,0.06250580,0.01900235,0.02599236,0.02392726,0.00077409,-0.02595779,0.02018031,-0.02648072,-0.03337536,-0.00959966,0.01942417,0.01326147,-0.00392682,0.00415402,-0.00324557,0.01084398,0.01702640,0, 00:00:09.0
91,0.06241187,0.01830488,-0.02714102,0.07232282,0.07604491,0.10643250,0.08477513,-0.09177243,-0.03195282,0.04761685,0.01666034,0.19052507,-0.03687762,-0.00284316,0.11063558,-0.01230168,0.09625621,0.04323290,-0.03890613,-0.01865210,0.01253846,0.12349401,0.13089496,0.01211151,-0.00454100,0.00134160,-0.00621613,0.02193540,0.01774868,-0.02758495,0.00696893,-0.02668713,0.11005682,-0.02063791,0.03286069,0.06385393,0.01948173,0.02705846,0.02531681,0.00143463,-0.02669690,0.02144278,-0.02589643,-0.03263406,-0.00848627,0.02048752,0.01417883,-0.00311246,0.00496158,-0.00251538,0.01276438,0.01748520,0, 00:00:09.0
92,0.06348583,0.02066921,-0.02649364,0.07659220,0.07917617,0.10720652,0.08555946,-0.09263937,-0.03320285,0.04817967,0.01779960,0.19317690,-0.03618383,-0.00269206,0.11639927,-0.01180168,0.09783705,0.04456979,-0.03849538,-0.02050571,0.01302205,0.12551464,0.13217123,0.01268607,-0.00356204,0.00245040,-0.00587908,0.02380065,0.01868345,-0.02980470,0.00591180,-0.02593353,0.11132313,-0.01959849,0.03438496,0.06537241,0.02014329,0.02824971,0.02672027,0.00211176,-0.02790458,0.02256334,-0.02529150,-0.03186151,-0.00725894,0.02182450,0.01515147,-0.00216671,0.00588489,-0.00170473,0.01509220,0.01751140,0, 00:00:09.1
93,0.06426676,0.02308655,-0.02573194,0.08064205,0.08189283,0.10757424,0.08588653,-0.09352233,-0.03500728,0.04897603,0.01845915,0.19446686,-0.03549827,-0.00237095,0.12187478,-0.01133514,0.09943639,0.04576003,-0.03741076,-0.02258424,0.01293459,0.12745631,0.13200609,0.01299664,-0.00353113,0.00320921,-0.00559809,0.02543294,0.01941189,-0.03274695,0.00390930,-0.02507349,0.11186791,-0.02083063,0.03535682,0.06615380,0.02064749,0.02910037,0.02763879,0.00209315,-0.02981978,0.02314807,-0.02557679,-0.03327893,-0.00789726,0.02215806,0.01545497,-0.00153574,0.00626515,-0.00149971,0.01673164,0.01642320,0, 00:00:09.2
94,0.06447415,0.02491854,-0.02512153,0.08398768,0.08416042,0.10755794,0.08542703,-0.09481356,-0.03701136,0.04946809,0.01860022,0.19431899,-0.03517961,-0.00260357,0.12609147,-0.01122720,0.10056331,0.04617627,-0.03659352,-0.02518942,0.01241827,0.12886484,0.13170430,0.01270563,-0.00477060,0.00315996,-0.00575658,0.02633538,0.01969703,-0.03624007,0.00135956,-0.02465052,0.11166903,-0.02312326,0.03532908,0.06559369,0.02066872,0.02923408,0.02782611,0.00149115,-0.03230906,0.02335414,-0.02645946,-0.03605378,-0.00986176,0.02116348,0.01474685,-0.00150698,0.00576891,-0.00233979,0.01736048,0.01438861,0, 00:00:09.3
95,0.06502273,0.02726575,-0.02450097,0.08733029,0.08656544,0.10775150,0.08520168,-0.09573275,-0.03849727,0.05026149,0.01883664,0.19525181,-0.03469199,-0.00282178,0.13019517,-0.01121826,0.10167795,0.04675260,-0.03555187,-0.02738829,0.01237379,0.13045725,0.13176984,0.01261272,-0.00552787,0.00313531,-0.00594562,0.02717964,0.02002634,-0.03917196,-0.00055095,-0.02444450,0.11204295,-0.02341472,0.03560256,0.06546646,0.02064171,0.02931288,0.02835530,0.00162546,-0.03418426,0.02385576,-0.02675978,-0.03640898,-0.00992231,0.02105003,0.01450462,-0.00144556,0.00554764,-0.00239649,0.01826976,0.01274843,0, 00:00:09.5
96,0.06612894,0.03027778,-0.02383038,0.09122422,0.08937855,0.10800398,0.08533435,-0.09615032,-0.03956221,0.05107509,0.01946558,0.19622855,-0.03378830,-0.00249144,0.13514818,-0.01106334,0.10330863,0.04813393,-0.03411657,-0.02908990,0.01283096,0.13252531,0.13252020,0.01302544,-0.00505642,0.00371555,-0.00573426,0.02873538,0.02088286,-0.04147041,-0.00183740,-0.02324445,0.11307102,-0.02212547,0.03664449,0.06672054,0.02092884,0.03006593,0.02970756,0.00234174,-0.03533100,0.02491474,-0.02608396,-0.03490160,-0.00834132,0.02225742,0.01511636,-0.00083657,0.00617750,-0.00142057,0.01946215,0.01189953,0, 00:00:09.5
97,0.06724624,0.03294852,-0.02294268,0.09533492,0.09246878,0.10847493,0.08572947,-0.09641063,-0.04048893,0.05206957,0.01999948,0.19824912,-0.03289624,-0.00211385,0.14042197,-0.01070361,0.10497010,0.04982699,-0.03268195,-0.03047167,0.01349758,0.13494517,0.13397570,0.01363584,-0.00419322,0.00459715,-0.00528758,0.03068577,0.02192225,-0.04300084,-0.00305844,-0.02137315,0.11429263,-0.02054188,0.03803604,0.06829272,0.02139857,0.03117464,0.03122798,0.00322846,-0.03603594,0.02628211,-0.02518204,-0.03316313,-0.00656986,0.02387645,0.01598521,0.00000897,0.00708742,-0.00033915,0.02016004,0.01118736,0, 00:00:09.6
98,0.06831352,0.03547023,-0.02215995,0.09939164,0.09596764,0.10925468,0.08615804,-0.09672624,-0.04104021,0.05275968,0.02067864,0.20021440,-0.03219574,-0.00166624,0.14583609,-0.01006025,0.10670137,0.05153206,-0.03153345,-0.03160752,0.01387846,0.13733153,0.13516234,0.01426786,-0.00303009,0.00562253,-0.00482099,0.03274639,0.02302029,-0.04441319,-0.00404301,-0.01979088,0.11567652,-0.01871305,0.03950899,0.06995274,0.02203070,0.03230206,0.03271320,0.00441115,-0.03679107,0.02764330,-0.02398493,-0.03101419,-0.00456464,0.02576451,0.01702086,0.00098991,0.00809778,0.00077628,0.02035680,0.01126625,0, 00:00:09.7
99,0.06945810,0.03769737,-0.02158616,0.10362244,0.09984535,0.11020110,0.08643904,-0.09751396,-0.04160823,0.05310645,0.02134746,0.20157036,-0.03187363,-0.00153261,0.15100960,-0.00917642,0.10818280,0.05307595,-0.03135190,-0.03273958,0.01367305,0.13930699,0.13606769,0.01494587,-0.00199486,0.00663254,-0.00423311,0.03484990,0.02410630,-0.04580068,-0.00534458,-0.01902120,0.11695573,-0.01771759,0.04065754,0.07139350,0.02256849,0.03341103,0.03411591,0.00532108,-0.03792671,0.02906719,-0.02298802,-0.02968418,-0.00333784,0.02755568,0.01797497,0.00201142,0.00909029,0.00160812,0.01960443,0.01132155,0, 00:00:09.8
100,0.07010235,0.03875042,-0.02180196,0.10768909,0.10384400,0.11108607,0.08614056,-0.09932899,-0.04274900,0.05222358,0.02125834,0.20272535,-0.03233778,-0.00189397,0.15528452,-0.00887692,0.10921121,0.05400094,-0.03286694,-0.03421462,0.01273202,0.14045912,0.13641068,0.01489640,-0.00224069,0.00703264,-0.00391932,0.03638580,0.02481530,-0.04733263,-0.00746844,-0.02024794,0.11755506,-0.01900847,0.04093162,0.07156327,0.02283251,0.03399149,0.03489041,0.00534014,-0.03982814,0.03013743,-0.02288362,-0.03140174,-0.00441585,0.02793690,0.01800632,0.00260184,0.00926191,0.00124371,0.01718860,0.01037357,0, 00:00:10.0
101,0.07057516,0.03954818,-0.02218904,0.11147780,0.10777643,0.11176356,0.08578733,-0.10141739,-0.04402532,0.05112524,0.02096859,0.20368874,-0.03297769,-0.00269558,0.15888146,-0.00913943,0.10978808,0.05454746,-0.03451264,-0.03568638,0.01173174,0.14167048,0.13652569,0.01465413,-0.00305793,0.00698484,-0.00400832,0.03738531,0.02527212,-0.04893046,-0.00941652,-0.02066717,0.11821581,-0.01955758,0.04103080,0.07111612,0.02279447,0.03413662,0.03517412,0.00537513,-0.04119739,0.03118471,-0.02252129,-0.03301742,-0.00503126,0.02804902,0.01759658,0.00285521,0.00901139,0.00069309,0.01425180,0.00907528,1, 00:00:10.0
102,0.07147502,0.04083330,-0.02256904,0.11541702,0.11164056,0.11233196,0.08586042,-0.10299721,-0.04520537,0.05059069,0.02126558,0.20538305,-0.03317951,-0.00291448,0.16319047,-0.00915495,0.11049395,0.05568343,-0.03541241,-0.03653783,0.01092921,0.14327855,0.13725390,0.01488540,-0.00269007,0.00746671,-0.00378214,0.03888317,0.02610897,-0.04992708,-0.01052316,-0.01984968,0.11978988,-0.01732147,0.04197315,0.07188047,0.02305723,0.03478207,0.03610924,0.00614391,-0.04089076,0.03299102,-0.02077172,-0.03248999,-0.00335685,0.02960209,0.01809891,0.00355038,0.00949880,0.00131176,0.01185533,0.00811022,0, 00:00:10.1
103,0.07260188,0.04216431,-0.02260030,0.11972456,0.11555047,0.11295130,0.08624230,-0.10424686,-0.04629040,0.05028190,0.02210630,0.20776886,-0.03322311,-0.00304393,0.16818494,-0.00870076,0.11160079,0.05747569,-0.03600208,-0.03696874,0.01097800,0.14518471,0.13828468,0.01541350,-0.00165449,0.00856903,-0.00318862,0.04102001,0.02730920,-0.05066989,-0.01128049,-0.01955984,0.12175561,-0.01457828,0.04308669,0.07339378,0.02362541,0.03595322,0.03769810,0.00755381,-0.04003901,0.03515295,-0.01816973,-0.03227059,-0.00100145,0.03173184,0.01912500,0.00462671,0.01048907,0.00253532,0.00944109,0.00665884,0, 00:00:10.2
104,0.07384878,0.04351240,-0.02250039,0.12398975,0.11953657,0.11381537,0.08658852,-0.10534465,-0.04713961,0.05009297,0.02293556,0.21036106,-0.03311713,-0.00317576,0.17330691,-0.00814838,0.11286173,0.05932275,-0.03652274,-0.03743118,0.01106693,0.14724275,0.13971500,0.01583542,-0.00065204,0.00975163,-0.00248075,0.04338195,0.02853727,-0.05132329,-0.01189328,-0.01819451,0.12383629,-0.01192170,0.04432007,0.07493745,0.02439178,0.03734721,0.03967635,0.00881553,-0.03921714,0.03729058,-0.01430213,-0.03321784,0.00155801,0.03377686,0.02023121,0.00575798,0.01151616,0.00387946,0.00605215,0.00387177,0, 00:00:10.3
105,0.07553882,0.04536690,-0.02143205,0.12783790,0.12314022,0.11489943,0.08695285,-0.10605608,-0.04737083,0.04951397,0.02354620,0.21425749,-0.03211949,-0.00306876,0.17773174,-0.00754591,0.11406425,0.06106970,-0.03673137,-0.03771087,0.01137866,0.15047525,0.14199826,0.01617137,0.00046497,0.01102010,-0.00159168,0.04583572,0.02974641,-0.05203339,-0.01259302,-0.01595015,0.12725998,-0.00928468,0.04566158,0.07653283,0.02551684,0.03891557,0.04196726,0.01017124,-0.03829574,0.03957924,-0.00980478,-0.03516747,0.00415673,0.03588714,0.02139100,0.00677467,0.01248005,0.00551191,0.00173817,-0.00022497,0, 00:00:10.5
106,0.07723771,0.04725227,-0.02029317,0.13100989,0.12639748,0.11599778,0.08718550,-0.10689720,-0.04744023,0.04897848,0.02350182,0.21760291,-0.03075719,-0.00293080,0.18146643,-0.00720453,0.11547365,0.06243220,-0.03719135,-0.03841649,0.01130391,0.15365930,0.14426543,0.01615294,0.00071791,0.01197090,-0.00075999,0.04811689,0.03059539,-0.05335745,-0.01404520,-0.01415239,0.13132429,-0.00851866,0.04719180,0.07760404,0.02753709,0.04038190,0.04447560,0.01091240,-0.03765402,0.04169342,-0.00644123,-0.03981776,0.00489875,0.03666031,0.02177947,0.00716689,0.01280517,0.00653692,-0.00432963,-0.00548905,0, 00:00:10.5
107,0.07846217,0.04885333,-0.01964792,0.13370538,0.12937264,0.11741301,0.08717982,-0.10829032,-0.04792804,0.04804092,0.02302344,0.21995294,-0.02972747,-0.00304697,0.18467490,-0.00783145,0.11698494,0.06299367,-0.03794134,-0.03957808,0.01040514,0.15653719,0.14510027,0.01581454,-0.00030103,0.01218336,-0.00048309,0.04974569,0.03085173,-0.05526473,-0.01611826,-0.01336850,0.13516343,-0.00919373,0.04872415,0.07758807,0.03024777,0.04120328,0.04659594,0.01107642,-0.03770881,0.04348744,-0.00452316,-0.04569043,0.00449434,0.03608901,0.02113717,0.00682159,0.01222877,0.00679332,-0.01149027,-0.01151362,0, 00:00:10.6
108,0.08009114,0.05106305,-0.01882620,0.13638560,0.13232383,0.11912657,0.08760212,-0.10959193,-0.04840983,0.04717487,0.02288369,0.22320747,-0.02835880,-0.00321662,0.18790542,-0.00860880,0.11872136,0.06389328,-0.03809549,-0.04053615,0.00962691,0.15986624,0.14670695,0.01563661,-0.00103190,0.01238659,-0.00031149,0.05155608,0.03127430,-0.05685980,-0.01771653,-0.01173296,0.13994186,-0.00739161,0.05067662,0.07828904,0.03325831,0.04215694,0.04943720,0.01163597,-0.03693523,0.04562466,-0.00227439,-0.04852412,0.00616385,0.03645501,0.02084075,0.00646213,0.01195499,0.00787401,-0.01741647,-0.01661390,0, 00:00:10.7
109,0.08218673,0.05388852,-0.01712780,0.13879320,0.13497782,0.12105788,0.08864938,-0.10997850,-0.04857076,0.04701848,0.02349172,0.22716358,-0.02631116,-0.00299213,0.19160825,-0.00878000,0.12096313,0.06574810,-0.03707388,-0.04097891,0.00983881,0.16372825,0.14944716,0.01601933,-0.00042444,0.01320087,0.00017511,0.05425436,0.03222927,-0.05768780,-0.01862671,-0.01008083,0.14563222,-0.00372753,0.05332186,0.08040153,0.03671018,0.04384857,0.05326313,0.01302885,-0.03542867,0.04822260,0.00079303,-0.04919219,0.00945992,0.03840831,0.02146893,0.00651005,0.01250744,0.01013954,-0.02182070,-0.02053892,0, 00:00:10.8
110,0.08447655,0.05650057,-0.01567203,0.14063121,0.13699231,0.12312033,0.09014551,-0.10982360,-0.04820521,0.04714351,0.02438615,0.23151232,-0.02408325,-0.00259672,0.19465226,-0.00920366,0.12367451,0.06791167,-0.03593178,-0.04115827,0.01021809,0.16745974,0.15205161,0.01661268,0.00065854,0.01432265,0.00074258,0.05739187,0.03348711,-0.05810074,-0.01936677,-0.00701033,0.15114117,0.00033768,0.05611534,0.08304787,0.04012767,0.04580123,0.05714149,0.01455356,-0.03386053,0.05088838,0.00357594,-0.04892492,0.01302250,0.04097612,0.02242599,0.00670094,0.01339877,0.01270799,-0.02579328,-0.02343827,0, 00:00:11.0
111,0.08683860,0.05866308,-0.01452754,0.14216395,0.13900957,0.12496220,0.09168529,-0.10950103,-0.04748305,0.04699698,0.02529944,0.23516671,-0.02220298,-0.00217517,0.19759621,-0.00935607,0.12605263,0.07016081,-0.03504537,-0.04131832,0.01073157,0.17110063,0.15377791,0.01731706,0.00192840,0.01557650,0.00135292,0.06066107,0.03486038,-0.05822960,-0.02014470,-0.00536373,0.15626852,0.00410383,0.05882926,0.08588246,0.04343885,0.04777839,0.06104223,0.01609152,-0.03247064,0.05333376,0.00566995,-0.04768696,0.01675850,0.04379339,0.02350815,0.00701947,0.01439192,0.01508219,-0.02901768,-0.02492886,0, 00:00:11.0
112,0.08922941,0.06072029,-0.01359656,0.14344545,0.14102133,0.12713932,0.09342512,-0.10911541,-0.04616448,0.04643780,0.02619598,0.23876841,-0.02038174,-0.00181245,0.20008007,-0.00950721,0.12831846,0.07218388,-0.03423515,-0.04165610,0.01054236,0.17532910,0.15640356,0.01782909,0.00300027,0.01679424,0.00196585,0.06381843,0.03618306,-0.05864657,-0.02120761,-0.00381902,0.16179401,0.00664696,0.06088379,0.08843783,0.04670285,0.04964814,0.06475466,0.01758618,-0.03237670,0.05491941,0.00669370,-0.04675815,0.01960766,0.04611896,0.02436777,0.00726744,0.01525822,0.01700277,-0.03110901,-0.02564386,0, 00:00:11.1
113,0.09105437,0.06251319,-0.01277164,0.14393410,0.14260730,0.12908486,0.09457930,-0.10930760,-0.04549370,0.04530893,0.02638045,0.24176958,-0.01890681,-0.00166714,0.20128864,-0.00999490,0.13034710,0.07332378,-0.03403679,-0.04247760,0.00937372,0.17983629,0.15845867,0.01776528,0.00266069,0.01718708,0.00224407,0.06616805,0.03692185,-0.05928835,-0.02299853,-0.00209491,0.16684447,0.00640589,0.06162729,0.08957555,0.04942582,0.05083190,0.06752050,0.01794871,-0.03384368,0.05544715,0.00629164,-0.04821789,0.01997508,0.04681898,0.02407610,0.00704494,0.01527126,0.01750860,-0.03327385,-0.02689579,0, 00:00:11.2
114,0.09230319,0.06369545,-0.01221472,0.14386170,0.14386220,0.13080204,0.09513216,-0.10983798,-0.04510205,0.04402060,0.02589340,0.24475054,-0.01798026,-0.00182947,0.20135103,-0.01099295,0.13187161,0.07379188,-0.03400343,-0.04352739,0.00838117,0.18361652,0.16038986,0.01753545,0.00173982,0.01690712,0.00208767,0.06778736,0.03730801,-0.06037001,-0.02496607,-0.00201662,0.17113185,0.00636366,0.06212189,0.09002624,0.05174486,0.05139792,0.06981518,0.01795919,-0.03562367,0.05556208,0.00620230,-0.04904656,0.02009274,0.04711021,0.02337851,0.00640644,0.01479366,0.01747425,-0.03503878,-0.02786260,0, 00:00:11.3
115,0.09353344,0.06434303,-0.01190241,0.14398329,0.14513801,0.13266456,0.09615624,-0.11000811,-0.04407940,0.04312394,0.02575010,0.24768445,-0.01739836,-0.00197174,0.20176639,-0.01182155,0.13338262,0.07482102,-0.03396051,-0.04406841,0.00813653,0.18631899,0.16248474,0.01773087,0.00197146,0.01697960,0.00210382,0.06980999,0.03813678,-0.06063501,-0.02625484,-0.00178012,0.17491955,0.00872552,0.06339027,0.09149906,0.05411901,0.05236411,0.07274029,0.01879406,-0.03653360,0.05608542,0.00662396,-0.04691466,0.02197301,0.04872890,0.02361040,0.00625862,0.01510055,0.01856784,-0.03541730,-0.02757616,0, 00:00:11.5
116,0.09513415,0.06469194,-0.01178851,0.14500177,0.14711328,0.13531119,0.09771129,-0.11030389,-0.04291545,0.04232351,0.02685846,0.25044751,-0.01723951,-0.00195604,0.20275646,-0.01211394,0.13532124,0.07637019,-0.03460790,-0.04439929,0.00816296,0.18833886,0.16416723,0.01817379,0.00283321,0.01768094,0.00249931,0.07234235,0.03934899,-0.06047390,-0.02699400,-0.00159813,0.17859004,0.01193469,0.06513697,0.09383433,0.05652946,0.05392003,0.07614792,0.02038890,-0.03673594,0.05697395,0.00786013,-0.04420422,0.02431260,0.05090449,0.02439522,0.00659694,0.01597081,0.02032712,-0.03532732,-0.02688122,0, 00:00:11.5
117,0.09711152,0.06511059,-0.01155925,0.14665271,0.14986999,0.13835232,0.09928684,-0.11045805,-0.04143092,0.04150792,0.02809867,0.25358093,-0.01717798,-0.00194870,0.20425531,-0.01215817,0.13711335,0.07788359,-0.03532192,-0.04482186,0.00838339,0.19022200,0.16631095,0.01867989,0.00405221,0.01863216,0.00290219,0.07499399,0.04059304,-0.05994003,-0.02760368,-0.00103245,0.18214309,0.01515138,0.06672163,0.09619202,0.05907716,0.05562743,0.07954105,0.02201155,-0.03698679,0.05797362,0.00880336,-0.04143552,0.02656839,0.05319370,0.02536219,0.00712557,0.01691991,0.02214780,-0.03483602,-0.02588389,0, 00:00:11.6
118,0.09936430,0.06634209,-0.01015164,0.14789321,0.15194173,0.14073050,0.10106844,-0.11049090,-0.04051471,0.04095734,0.02944911,0.25824487,-0.01637205,-0.00172611,0.20580450,-0.01201020,0.13917366,0.07958859,-0.03504498,-0.04533716,0.00835766,0.19267190,0.16881236,0.01924983,0.00531853,0.01980135,0.00338333,0.07780967,0.04179161,-0.05986940,-0.02830952,-0.00022333,0.18576656,0.01829562,0.06853267,0.09860042,0.06156256,0.05731870,0.08293009,0.02337919,-0.03726567,0.05910972,0.00940663,-0.03842868,0.02905089,0.05559986,0.02637674,0.00779652,0.01792915,0.02401076,-0.03406688,-0.02465765,0, 00:00:11.7
119,0.10104396,0.06797432,-0.00877794,0.14784078,0.15244119,0.14256920,0.10293701,-0.11101188,-0.04086335,0.04071429,0.03006399,0.26116210,-0.01522197,-0.00112625,0.20698957,-0.01199001,0.14220050,0.08112714,-0.03361461,-0.04515104,0.00775094,0.19554409,0.17019856,0.01952049,0.00550249,0.02053623,0.00364483,0.08020509,0.04252171,-0.06041358,-0.02864674,0.00102739,0.18836473,0.01888756,0.06971230,0.10001139,0.06386450,0.05849719,0.08582895,0.02383565,-0.03732579,0.06001777,0.00933303,-0.03880280,0.02979116,0.05670775,0.02660284,0.00801262,0.01835506,0.02495456,-0.03516108,-0.02566511,0, 00:00:11.8
120,0.10170363,0.06924366,-0.00797455,0.14596470,0.15107809,0.14498655,0.10523897,-0.11192900,-0.04271206,0.04060386,0.02947829,0.26191780,-0.01437242,-0.00053001,0.20688941,-0.01225880,0.14583673,0.08222593,-0.03162644,-0.04383838,0.00657074,0.19789010,0.16987960,0.01930685,0.00430618,0.02029468,0.00330975,0.08180010,0.04261978,-0.06127151,-0.02852746,0.00267274,0.18958367,0.01752790,0.07014444,0.09999708,0.06567723,0.05892538,0.08794899,0.02333540,-0.03695375,0.06033771,0.00884447,-0.04171852,0.02915568,0.05632082,0.02571478,0.00746344,0.01781613,0.02490681,-0.03805028,-0.02803258,0, 00:00:12.0
121,0.10226795,0.07049513,-0.00699206,0.14384928,0.14959323,0.14755504,0.10750108,-0.11252852,-0.04419144,0.04054498,0.02910040,0.26268750,-0.01326270,0.00012956,0.20662674,-0.01273261,0.14919311,0.08338449,-0.02946749,-0.04223038,0.00582262,0.19984727,0.16966084,0.01935908,0.00360603,0.01990292,0.00285909,0.08327823,0.04283588,-0.06152089,-0.02799628,0.00481533,0.19079243,0.01795247,0.07089670,0.10024219,0.06727668,0.05922443,0.09019373,0.02332733,-0.03566006,0.06094456,0.00886877,-0.04240697,0.03002237,0.05649793,0.02511593,0.00693081,0.01751795,0.02544799,-0.03983926,-0.03014566,0, 00:00:12.0
122,0.10345175,0.07228982,-0.00587068,0.14222819,0.14840394,0.14999247,0.10999483,-0.11255468,-0.04460604,0.04056898,0.02920561,0.26377279,-0.01190830,0.00075743,0.20676692,-0.01306644,0.15277828,0.08519787,-0.02704102,-0.04064475,0.00559488,0.20203418,0.17039378,0.01994156,0.00399103,0.02001822,0.00279125,0.08543607,0.04353951,-0.06123780,-0.02712426,0.00564842,0.19277613,0.02034112,0.07250884,0.10154637,0.06896371,0.06014128,0.09308611,0.02401226,-0.03388526,0.06225597,0.00969429,-0.04112941,0.03228401,0.05788951,0.02542502,0.00698421,0.01810779,0.02706550,-0.04112032,-0.03149100,0, 00:00:12.1
123,0.10497245,0.07458019,-0.00445983,0.14088167,0.14735761,0.15232532,0.11251189,-0.11270259,-0.04513505,0.04056611,0.02945146,0.26563147,-0.01041600,0.00141591,0.20693482,-0.01315120,0.15605716,0.08702701,-0.02489174,-0.03909841,0.00567941,0.20423767,0.17148265,0.02043677,0.00459391,0.02045454,0.00286927,0.08787432,0.04420905,-0.06082251,-0.02634009,0.00790684,0.19500412,0.02283305,0.07411750,0.10288887,0.07061315,0.06133429,0.09614812,0.02498709,-0.03202197,0.06366928,0.01046618,-0.03995689,0.03467131,0.05949576,0.02595441,0.00744515,0.01894878,0.02870246,-0.04261392,-0.03236086,0, 00:00:12.2
124,0.10655706,0.07713681,-0.00330784,0.13935064,0.14628968,0.15484896,0.11495610,-0.11280917,-0.04564993,0.04092374,0.02995092,0.26727912,-0.00878445,0.00235157,0.20764211,-0.01299231,0.15940198,0.08903277,-0.02219710,-0.03742227,0.00585568,0.20651604,0.17231245,0.02089933,0.00506215,0.02108498,0.00299771,0.09031073,0.04493563,-0.06032831,-0.02563668,0.00961091,0.19710405,0.02538820,0.07607161,0.10436767,0.07254512,0.06263515,0.09926501,0.02617287,-0.03021611,0.06509658,0.01160419,-0.03860887,0.03749269,0.06108763,0.02652905,0.00796855,0.01978855,0.03027696,-0.04374797,-0.03311038,0, 00:00:12.3
125,0.10799411,0.07959102,-0.00210020,0.13749522,0.14507014,0.15720566,0.11737283,-0.11316510,-0.04632882,0.04113373,0.03019825,0.26764226,-0.00727783,0.00333582,0.20846331,-0.01314565,0.16288404,0.09110364,-0.01954284,-0.03600539,0.00570966,0.20837270,0.17288056,0.02128066,0.00547266,0.02171618,0.00300604,0.09262705,0.04558347,-0.06030770,-0.02509590,0.01094405,0.19891559,0.02698603,0.07794059,0.10562765,0.07447167,0.06389990,0.10206673,0.02689013,-0.02881542,0.06632838,0.01253996,-0.03795245,0.03973851,0.06232568,0.02685691,0.00849691,0.02045450,0.03150780,-0.04516951,-0.03457208,0, 00:00:12.5
126,0.10888623,0.08138470,-0.00126024,0.13515820,0.14350420,0.15917051,0.11932746,-0.11412589,-0.04718181,0.04091261,0.02980410,0.26830971,-0.00620139,0.00396806,0.20811689,-0.01361240,0.16578685,0.09232941,-0.01766952,-0.03515733,0.00501912,0.20996095,0.17297035,0.02092389,0.00450156,0.02152428,0.00262058,0.09414691,0.04573392,-0.06085704,-0.02524818,0.01201606,0.20013450,0.02614213,0.07887630,0.10531567,0.07580755,0.06447627,0.10387133,0.02664746,-0.02857701,0.06702907,0.01204130,-0.03982663,0.03969178,0.06216422,0.02618497,0.00851912,0.02021657,0.03156925,-0.04785302,-0.03711758,0, 00:00:12.5
127,0.10957614,0.08275525,-0.00085110,0.13251932,0.14179142,0.16145006,0.12086932,-0.11555479,-0.04781959,0.04000030,0.02914056,0.26837075,-0.00536744,0.00418952,0.20699196,-0.01432982,0.16847697,0.09297914,-0.01634227,-0.03439428,0.00351097,0.21134177,0.17289728,0.02042294,0.00292768,0.02051256,0.00180973,0.09493763,0.04557185,-0.06179719,-0.02556217,0.01280274,0.20134006,0.02554882,0.07939880,0.10417505,0.07666815,0.06450071,0.10528922,0.02616631,-0.02835430,0.06739548,0.01107631,-0.04162320,0.03945126,0.06150555,0.02503739,0.00817055,0.01948741,0.03114318,-0.05047697,-0.03969994,0, 00:00:12.6
128,0.11066558,0.08487573,-0.00014690,0.13018718,0.14032614,0.16365115,0.12284973,-0.11681269,-0.04825016,0.03939258,0.02890704,0.26920456,-0.00411704,0.00434371,0.20632079,-0.01505976,0.17112121,0.09422485,-0.01485640,-0.03330753,0.00230505,0.21293591,0.17315264,0.02015358,0.00226996,0.01992095,0.00128960,0.09609418,0.04580191,-0.06203323,-0.02537616,0.01382422,0.20309108,0.02729889,0.08056676,0.10420817,0.07767233,0.06499983,0.10723917,0.02670872,-0.02722369,0.06815421,0.01129623,-0.04116378,0.04126652,0.06207601,0.02473054,0.00817405,0.01944054,0.03194316,-0.05191632,-0.04136902,0, 00:00:12.7
129,0.11194156,0.08724533,0.00070174,0.12801285,0.13898847,0.16602816,0.12524903,-0.11788040,-0.04870342,0.03916497,0.02922049,0.27040792,-0.00251144,0.00463069,0.20623440,-0.01558473,0.17410398,0.09614451,-0.01353894,-0.03189697,0.00191926,0.21445973,0.17368753,0.02017467,0.00252236,0.01991443,0.00110796,0.09783476,0.04640881,-0.06201351,-0.02490126,0.01537419,0.20513102,0.02965983,0.08211973,0.10506231,0.07902091,0.06603729,0.10998052,0.02768945,-0.02582422,0.06915519,0.01185550,-0.04025559,0.04366316,0.06335168,0.02494714,0.00852709,0.01990094,0.03328654,-0.05297716,-0.04275708,0, 00:00:12.8
130,0.11329146,0.08983247,0.00179684,0.12596376,0.13763933,0.16848750,0.12760726,-0.11892761,-0.04918069,0.03846471,0.02934670,0.27111885,-0.00085732,0.00490452,0.20627663,-0.01602543,0.17703953,0.09805168,-0.01214317,-0.03061527,0.00157455,0.21574667,0.17381038,0.02027403,0.00283514,0.02007392,0.00104281,0.09968385,0.04705610,-0.06184737,-0.02449556,0.01843901,0.20676282,0.03212564,0.08368039,0.10596161,0.08042292,0.06723271,0.11249900,0.02861930,-0.02455852,0.07011240,0.01246402,-0.03916466,0.04605946,0.06477377,0.02523382,0.00901830,0.02042516,0.03450282,-0.05372151,-0.04409110,0, 00:00:13.0
131,0.11481762,0.09243149,0.00286808,0.12383175,0.13655967,0.17087480,0.13008019,-0.11972434,-0.04927723,0.03738722,0.02984234,0.27232438,0.00058213,0.00520518,0.20613760,-0.01654058,0.17984168,0.09977540,-0.01121943,-0.02988467,0.00064359,0.21635045,0.17368656,0.02038826,0.00327370,0.02018890,0.00110961,0.10164308,0.04772084,-0.06182828,-0.02470412,0.01872091,0.20773505,0.03413340,0.08515530,0.10697199,0.08182158,0.06825005,0.11481917,0.02920577,-0.02417734,0.07013539,0.01209261,-0.03671484,0.04800735,0.06634903,0.02560073,0.00955436,0.02100613,0.03528274,-0.05323917,-0.04378787,0, 00:00:13.0
132,0.11608950,0.09249666,0.00147504,0.12101623,0.13500923,0.17360167,0.13252638,-0.12087613,-0.04901423,0.03541918,0.02969966,0.27306387,-0.00003583,0.00483255,0.20499948,-0.01713910,0.18251038,0.10106717,-0.01062506,-0.03003352,-0.00056949,0.21483703,0.17141891,0.01994073,0.00295307,0.02002622,0.00102534,0.10341836,0.04815049,-0.06233513,-0.02658705,0.01649886,0.20670800,0.03490227,0.08715907,0.10769162,0.08345117,0.06903457,0.11728801,0.02957220,-0.02582299,0.06876230,0.00982328,-0.03557298,0.04710566,0.06703553,0.02546359,0.00963594,0.02105025,0.03529735,-0.05325801,-0.04329006,0, 00:00:13.1
133,0.11818867,0.09425123,0.00190652,0.11682196,0.13370875,0.17461304,0.13442981,-0.12380213,-0.04816950,0.03338551,0.02910456,0.27345616,0.00094032,0.00381588,0.20355187,-0.01814101,0.18367310,0.10224574,-0.01015327,-0.03053887,-0.00119052,0.21125765,0.16813210,0.01863373,0.00169145,0.01940272,0.00061452,0.10485084,0.04807914,-0.06327545,-0.02883811,0.01365879,0.20505933,0.03659791,0.08859221,0.10910467,0.08526812,0.06938118,0.12002246,0.03048592,-0.02828209,0.06661736,0.00598377,-0.03485170,0.04202154,0.06616578,0.02472305,0.00931264,0.02029003,0.03476373,-0.05412533,-0.04356593,0, 00:00:13.2
134,0.12401269,0.10394292,0.00692658,0.11248690,0.13442282,0.16852379,0.13048625,-0.12887029,-0.04645319,0.03007297,0.02901949,0.27597654,0.00682079,0.00219097,0.20452058,-0.01990164,0.17689367,0.10464503,-0.00927148,-0.03166014,-0.00293211,0.20725317,0.16545045,0.01732132,0.00091227,0.01885798,0.00020559,0.10666236,0.04797941,-0.06447309,-0.03081821,0.00973711,0.20488232,0.04093472,0.08842600,0.11264889,0.08756769,0.06976564,0.12379429,0.03339784,-0.03016722,0.06470749,0.00287403,-0.03076565,0.03730012,0.06542011,0.02439905,0.00869571,0.01958824,0.03514485,-0.05422245,-0.04299362,0, 00:00:13.3
135,0.13585988,0.11576091,0.00831270,0.10257731,0.13007347,0.15280744,0.11821921,-0.13222665,-0.04206485,0.02629609,0.02894327,0.27643126,0.00967084,-0.00170289,0.20262152,-0.02242104,0.16111559,0.10886019,-0.00645818,-0.02981412,-0.00604778,0.19621570,0.15672460,0.01698870,0.00147512,0.01935510,0.00025676,0.10942561,0.04829931,-0.06382048,-0.02933921,0.00661442,0.19846728,0.04722049,0.08886183,0.11821084,0.09084176,0.07078415,0.12866922,0.03763913,-0.02875571,0.06372035,0.00134898,-0.02344474,0.03487425,0.06669882,0.02504716,0.00820360,0.01958019,0.03688591,-0.05347527,-0.04133078,0, 00:00:13.5
136,0.15179971,0.12970325,0.00649975,0.08594312,0.12116930,0.14416894,0.11478123,-0.13470474,-0.03714313,0.02271343,0.02772050,0.27172613,0.01169499,-0.00830809,0.19731382,-0.02551931,0.15454370,0.11325429,-0.00368169,-0.02583032,-0.00904036,0.17725900,0.14174868,0.01734792,0.00254824,0.02059996,0.00067753,0.11260225,0.04869603,-0.06180221,-0.02506842,0.00240188,0.18623775,0.05345651,0.08962282,0.12428217,0.09469751,0.07219253,0.13389230,0.04278094,-0.02479194,0.06292024,0.00019678,-0.01557741,0.03329694,0.06882846,0.02612654,0.00807278,0.01990376,0.03914401,-0.05245917,-0.03862540,0, 00:00:13.5
137,0.16982836,0.15000153,0.00953028,0.06794073,0.11101206,0.13367303,0.11093782,-0.13797013,-0.03269774,0.02014434,0.02701364,0.26828313,0.01893698,-0.01542857,0.19152528,-0.02881163,0.14727436,0.11750033,-0.00184453,-0.02140113,-0.01159598,0.15813616,0.12877746,0.01776866,0.00372752,0.02214479,0.00111350,0.11580784,0.04898199,-0.05922912,-0.02043850,-0.00324067,0.17478952,0.05922266,0.09057539,0.13048476,0.09862368,0.07374021,0.13912249,0.04840432,-0.02022413,0.06212854,-0.00109633,-0.00776495,0.03230886,0.07135270,0.02732890,0.00817916,0.02039143,0.04143370,-0.05097972,-0.03523320,0, 00:00:13.6
138,0.18900958,0.17237577,0.01327749,0.05152551,0.10169301,0.12006735,0.10568739,-0.14197855,-0.02908972,0.01672346,0.02584570,0.26677966,0.02789102,-0.02316895,0.18764804,-0.03224219,0.13808006,0.12144396,-0.00082142,-0.01677905,-0.01532808,0.13934661,0.11629570,0.01817811,0.00464971,0.02376905,0.00154451,0.11902061,0.04907692,-0.05650389,-0.01515437,-0.00935984,0.16396892,0.06364500,0.09123942,0.13661614,0.10262711,0.07521915,0.14421786,0.05362873,-0.01569878,0.06103037,-0.00233660,-0.00189014,0.03074226,0.07356872,0.02828732,0.00824213,0.02067675,0.04318003,-0.04994844,-0.03209119,0, 00:00:13.7
139,0.20675042,0.19196275,0.01226860,0.03370250,0.09120621,0.10459679,0.10013599,-0.14704861,-0.02672382,0.01322723,0.02139429,0.26591033,0.03349012,-0.03201202,0.18315972,-0.03684479,0.12783214,0.12439501,-0.00098090,-0.01137702,-0.01950005,0.12178104,0.10455061,0.01819409,0.00425002,0.02450695,0.00156025,0.12137517,0.04867364,-0.05388865,-0.00855024,-0.01656977,0.15404814,0.06529808,0.09097017,0.14113130,0.10602774,0.07599325,0.14852780,0.05825632,-0.01075867,0.05941065,-0.00412107,0.00108093,0.02724995,0.07419692,0.02820035,0.00781001,0.01998215,0.04362967,-0.04995730,-0.02947093,0, 00:00:13.8
140,0.22287202,0.21091907,0.00912210,0.01399969,0.07928161,0.08569533,0.09264953,-0.15315019,-0.02517164,0.01047427,0.01398804,0.26620257,0.03776536,-0.04188560,0.17753159,-0.04238763,0.11477175,0.12667660,-0.00222335,-0.00586057,-0.02288527,0.10308875,0.09203643,0.01806619,0.00334726,0.02451959,0.00118315,0.12300760,0.04804394,-0.05166357,-0.00162120,-0.02396514,0.14377403,0.06680071,0.09002831,0.14465393,0.10852375,0.07630228,0.15238839,0.06312628,-0.00550306,0.05770566,-0.00576510,0.00406955,0.02421414,0.07434853,0.02778958,0.00720026,0.01886386,0.04373740,-0.05007343,-0.02644244,0, 00:00:14.0
141,0.23927420,0.23083173,0.00598004,-0.00622500,0.06687586,0.06607051,0.08569258,-0.15840814,-0.02254633,0.00714851,0.00673993,0.26738107,0.04290229,-0.05189566,0.17184730,-0.04815090,0.10108843,0.12990977,-0.00327464,0.00105314,-0.02576277,0.08496088,0.08073121,0.01865468,0.00361999,0.02491262,0.00114941,0.12531628,0.04810452,-0.04751220,0.00664923,-0.03051164,0.13459003,0.07103614,0.08983497,0.14934179,0.11109244,0.07710898,0.15726545,0.06945868,0.00143868,0.05642320,-0.00623518,0.01103074,0.02414691,0.07586578,0.02830265,0.00692062,0.01851256,0.04515246,-0.04919236,-0.02172591,0, 00:00:14.0
142,0.25616831,0.25062084,0.00296079,-0.02597550,0.05492825,0.04668856,0.07873249,-0.16353215,-0.01955890,0.00409301,0.00021796,0.26976487,0.04810064,-0.06171389,0.16680326,-0.05357911,0.08743628,0.13384497,-0.00503774,0.00869189,-0.02883837,0.06734144,0.06999923,0.01952650,0.00478355,0.02593353,0.00150633,0.12827981,0.04867908,-0.04221706,0.01566333,-0.03665677,0.12613772,0.07632263,0.09025217,0.15513389,0.11396864,0.07841282,0.16292602,0.07650838,0.00940278,0.05556006,-0.00603953,0.01873538,0.02497003,0.07817915,0.02933891,0.00682607,0.01872716,0.04728834,-0.04815210,-0.01626204,0, 00:00:14.1
143,0.27461922,0.27060738,0.00035110,-0.04649708,0.04230387,0.02558749,0.06946079,-0.16838598,-0.01554038,-0.00026928,-0.00599031,0.27324396,0.05343290,-0.07177769,0.16125365,-0.05886258,0.07206257,0.13786037,-0.00668921,0.01627173,-0.03282579,0.04955177,0.06035532,0.02054059,0.00629244,0.02736299,0.00199257,0.13149512,0.04939505,-0.03642255,0.02532227,-0.04333849,0.11816855,0.08149896,0.09068543,0.16138172,0.11725948,0.07990300,0.16872615,0.08365875,0.01762180,0.05513994,-0.00545850,0.02578106,0.02576055,0.08076042,0.03049985,0.00690947,0.01912372,0.04939795,-0.04704626,-0.01079451,0, 00:00:14.2
144,0.29546556,0.29074940,-0.00238873,-0.06723396,0.02983370,0.00176364,0.05671373,-0.17200789,-0.01035447,-0.00544207,-0.01088462,0.27693582,0.05836391,-0.08207272,0.15616843,-0.06394297,0.05360994,0.14184140,-0.00680317,0.02351275,-0.03744310,0.03217304,0.05055622,0.02170427,0.00783385,0.02900288,0.00266629,0.13495962,0.05018155,-0.03095169,0.03503348,-0.05065900,0.11046505,0.08604600,0.09142743,0.16781811,0.12089238,0.08144022,0.17459041,0.09123834,0.02553577,0.05498018,-0.00482676,0.03195070,0.02617777,0.08337611,0.03172252,0.00716527,0.01963207,0.05139979,-0.04575840,-0.00536791,0, 00:00:14.3
145,0.31629854,0.30957654,-0.00667002,-0.08844127,0.01687718,-0.02382124,0.04167765,-0.17539680,-0.00526553,-0.01035314,-0.01602986,0.27997857,0.06195164,-0.09247543,0.15069066,-0.06827148,0.03354914,0.14533834,-0.00583370,0.02941218,-0.04129855,0.01526713,0.03960613,0.02242884,0.00865885,0.03116783,0.00413505,0.13819946,0.05071375,-0.02705030,0.04400122,-0.05834938,0.10187046,0.08771107,0.09116836,0.17332813,0.12513828,0.08267861,0.18002839,0.09799867,0.03257628,0.05451470,-0.00505862,0.03473119,0.02408674,0.08475337,0.03216458,0.00720366,0.01959142,0.05263077,-0.04490014,-0.00049283,0, 00:00:14.5
146,0.33753076,0.32891032,-0.01095751,-0.11089556,0.00282588,-0.05065472,0.02593631,-0.18167739,-0.00082499,-0.01532899,-0.02148815,0.28346619,0.06570200,-0.10342165,0.14387235,-0.07241195,0.01263133,0.14799339,-0.00580386,0.03453864,-0.04558461,-0.00109644,0.02878068,0.02250709,0.00820917,0.03330145,0.00588015,0.14047894,0.05066176,-0.02463632,0.05264332,-0.06555375,0.09281033,0.08745380,0.08986951,0.17734493,0.12954211,0.08319246,0.18454362,0.10426613,0.03894064,0.05391111,-0.00618292,0.03510581,0.02022855,0.08472839,0.03162052,0.00670687,0.01873928,0.05271278,-0.04383983,0.00342001,0, 00:00:14.5
147,0.35964227,0.34976879,-0.01471499,-0.13467921,-0.01265002,-0.07911960,0.01023573,-0.19012322,0.00268313,-0.02075055,-0.02650457,0.28805533,0.07123007,-0.11417641,0.13637120,-0.07786631,-0.00863233,0.15064996,-0.00641424,0.04151488,-0.05123425,-0.01571762,0.01825109,0.02269329,0.00792935,0.03431378,0.00688667,0.14263098,0.05066446,-0.02167095,0.06431096,-0.07158724,0.08528112,0.08907628,0.08849157,0.18169494,0.13309139,0.08375126,0.18939807,0.11139198,0.04776017,0.05393063,-0.00635032,0.03863556,0.01850490,0.08524945,0.03146981,0.00628073,0.01819071,0.05373640,-0.04135910,0.00821653,0, 00:00:14.6
148,0.38228002,0.37117407,-0.01835535,-0.15841991,-0.02874090,-0.10798858,-0.00442970,-0.19772594,0.00580991,-0.02527267,-0.03096002,0.29274777,0.07755223,-0.12427424,0.12953195,-0.08297732,-0.02898609,0.15437035,-0.00657126,0.04708771,-0.05592743,-0.02893461,0.00844987,0.02343390,0.00888216,0.03614411,0.00853986,0.14576153,0.05133544,-0.02094120,0.07537682,-0.07676738,0.07849891,0.09278393,0.08770061,0.18742009,0.13728288,0.08515120,0.19553708,0.11941019,0.05577628,0.05466340,-0.00546324,0.04476939,0.01892084,0.08710753,0.03223272,0.00627165,0.01845634,0.05612490,-0.03742645,0.01388951,0, 00:00:14.7
149,0.40520087,0.39259005,-0.02241557,-0.18203652,-0.04499865,-0.13709238,-0.01919096,-0.20471194,0.00867165,-0.02789725,-0.03505680,0.29787621,0.08380417,-0.13406810,0.12339340,-0.08789001,-0.04886883,0.15864585,-0.00573493,0.05092140,-0.05823250,-0.04153078,-0.00137505,0.02424379,0.01033139,0.03847734,0.01051282,0.14921609,0.05223206,-0.02218496,0.08495575,-0.08071663,0.07157386,0.09635291,0.08699088,0.19376826,0.14206868,0.08690450,0.20197621,0.12737179,0.06218849,0.05544351,-0.00441056,0.05022482,0.01923546,0.08915573,0.03319543,0.00641556,0.01896342,0.05874798,-0.03268144,0.01974035,0, 00:00:14.8
150,0.42805871,0.41429102,-0.02624367,-0.20596063,-0.06159139,-0.16626304,-0.03362012,-0.21111523,0.01173731,-0.02877343,-0.03913831,0.30298206,0.09029222,-0.14349341,0.11741136,-0.09251922,-0.06824638,0.16299546,-0.00392880,0.05404260,-0.05894837,-0.05323398,-0.01126400,0.02514635,0.01200772,0.04088584,0.01253023,0.15287779,0.05319537,-0.02430872,0.09425437,-0.08370450,0.06467836,0.09934118,0.08634553,0.20011878,0.14691611,0.08875913,0.20837483,0.13563812,0.06800737,0.05624051,-0.00338461,0.05551400,0.01925152,0.09118371,0.03417028,0.00661908,0.01958145,0.06145207,-0.02747077,0.02547242,0, 00:00:15.0
151,0.45078468,0.43630317,-0.03052442,-0.23021826,-0.07846719,-0.19562741,-0.04795022,-0.21770310,0.01447659,-0.03026539,-0.04359592,0.30721226,0.09677332,-0.15280272,0.11135573,-0.09696890,-0.08783838,0.16709143,-0.00210435,0.05724311,-0.06077472,-0.06485865,-0.02101541,0.02602430,0.01341011,0.04326131,0.01453008,0.15658924,0.05406248,-0.02709680,0.10365800,-0.08788319,0.05738255,0.10065228,0.08522206,0.20606598,0.15172237,0.09054250,0.21484561,0.14326210,0.07280930,0.05668564,-0.00313786,0.05955455,0.01798054,0.09272266,0.03496423,0.00678903,0.02007052,0.06382637,-0.02227002,0.03079010,0, 00:00:15.0
152,0.47294158,0.45785269,-0.03508557,-0.25469258,-0.09565571,-0.22519916,-0.06299084,-0.22579233,0.01584327,-0.03265826,-0.04894145,0.31119660,0.10284787,-0.16261226,0.10457745,-0.10189020,-0.10778175,0.17002805,-0.00168055,0.06030368,-0.06340290,-0.07639767,-0.03151372,0.02625410,0.01360533,0.04486266,0.01606287,0.15940352,0.05425750,-0.03147019,0.11228424,-0.09203435,0.04904445,0.09887011,0.08286203,0.21052827,0.15596329,0.09163962,0.22037758,0.15040794,0.07554290,0.05618664,-0.00442650,0.06068275,0.01408998,0.09274609,0.03473643,0.00639163,0.01973380,0.06488199,-0.01761818,0.03524862,0, 00:00:15.1
153,0.49472907,0.47901580,-0.03998069,-0.27930200,-0.11286064,-0.25522521,-0.07865541,-0.23387250,0.01709856,-0.03534229,-0.05469450,0.31556627,0.10886332,-0.17253044,0.09736411,-0.10717393,-0.12805267,0.17223260,-0.00159880,0.06305394,-0.06629905,-0.08759248,-0.04206524,0.02625020,0.01333042,0.04591977,0.01720202,0.16142043,0.05398299,-0.03616096,0.12022362,-0.09629324,0.04070393,0.09726572,0.08025646,0.21411489,0.15984796,0.09221560,0.22516893,0.15704653,0.07799831,0.05538638,-0.00545900,0.06240414,0.01039344,0.09234575,0.03407850,0.00560518,0.01894098,0.06554226,-0.01276615,0.03959902,0, 00:00:15.2
154,0.51692468,0.50076759,-0.04432009,-0.30345893,-0.12972797,-0.28564611,-0.09433441,-0.23985766,0.01970309,-0.03759741,-0.06013420,0.31896865,0.11508250,-0.18247037,0.09055168,-0.11239144,-0.14878057,0.17510967,0.00004147,0.06675085,-0.06898965,-0.09882382,-0.05184915,0.02679252,0.01395778,0.04736442,0.01849723,0.16377608,0.05417072,-0.03938086,0.12888868,-0.09991719,0.03332680,0.09870632,0.07850694,0.21868461,0.16373412,0.09315624,0.23039970,0.16438471,0.08186962,0.05505597,-0.00522778,0.06856078,0.00980331,0.09342223,0.03428217,0.00520028,0.01883975,0.06735410,-0.00663463,0.04478504,0, 00:00:15.3
155,0.53954148,0.52238822,-0.04844463,-0.32734233,-0.14627072,-0.31662208,-0.11082818,-0.24402279,0.02321147,-0.03903475,-0.06524242,0.32274067,0.12100344,-0.19250660,0.08409728,-0.11723551,-0.17050233,0.17846018,0.00222305,0.07154481,-0.07173923,-0.11107950,-0.06099378,0.02793516,0.01541548,0.04932067,0.02004481,0.16651256,0.05465184,-0.04060410,0.13815238,-0.10381538,0.02574796,0.10091832,0.07722864,0.22417414,0.16760902,0.09452067,0.23573934,0.17207927,0.08666056,0.05467262,-0.00467789,0.07582211,0.00988444,0.09545154,0.03505824,0.00519376,0.01928010,0.06946949,-0.00002945,0.05043852,0, 00:00:15.5
156,0.56214803,0.54296792,-0.05345825,-0.35167682,-0.16335835,-0.34782290,-0.12766610,-0.24594972,0.02829999,-0.04011254,-0.07025559,0.32687411,0.12572503,-0.20262587,0.07686238,-0.12176704,-0.19306765,0.18184395,0.00534471,0.07805486,-0.07479012,-0.12496966,-0.07097404,0.02933272,0.01707533,0.05142559,0.02169521,0.16905779,0.05521642,-0.03968477,0.14831893,-0.10877059,0.01689254,0.10304836,0.07574255,0.22977851,0.17074499,0.09594341,0.24045153,0.17968471,0.09232484,0.05397388,-0.00379776,0.08306717,0.00977223,0.09803610,0.03603637,0.00538966,0.01988503,0.07129729,0.00720198,0.05683825,0, 00:00:15.5
157,0.58416939,0.56284744,-0.05869658,-0.37590879,-0.18026640,-0.37963364,-0.14542848,-0.24687849,0.03365852,-0.04126411,-0.07577839,0.33053878,0.12996337,-0.21309206,0.06910881,-0.12592286,-0.21657844,0.18507260,0.00840687,0.08603569,-0.07807256,-0.13807581,-0.08062182,0.03077589,0.01894886,0.05343282,0.02333602,0.17129052,0.05583998,-0.03687734,0.15953200,-0.11214104,0.00768061,0.10469503,0.07376567,0.23559743,0.17308842,0.09744573,0.24488629,0.18692176,0.09921231,0.05285464,-0.00304474,0.08943427,0.00912544,0.10103296,0.03709719,0.00537708,0.02061890,0.07286768,0.01471030,0.06431320,0, 00:00:15.6
158,0.60513258,0.58218676,-0.06373021,-0.39993355,-0.19650979,-0.41153488,-0.16434757,-0.24759836,0.03870379,-0.04347230,-0.08180092,0.33409244,0.13426153,-0.22413553,0.06068841,-0.13011275,-0.24107742,0.18728203,0.01036823,0.09403903,-0.08220431,-0.15066941,-0.09116575,0.03196416,0.02016686,0.05490348,0.02485895,0.17265902,0.05599385,-0.03371901,0.17029193,-0.11622677,-0.00243824,0.10342982,0.07106833,0.24074812,0.17484336,0.09861735,0.24838905,0.19295894,0.10556573,0.05074987,-0.00418089,0.09285681,0.00594855,0.10308038,0.03719812,0.00447410,0.02081340,0.07333770,0.02036685,0.07155480,0, 00:00:15.7
159,0.62515271,0.60179687,-0.06856918,-0.42346248,-0.21236892,-0.44367400,-0.18385153,-0.24902342,0.04321759,-0.04665626,-0.08869210,0.33647335,0.13874713,-0.23581365,0.05157452,-0.13473476,-0.26636726,0.18821566,0.01120478,0.10161768,-0.08703089,-0.16386214,-0.10291326,0.03274393,0.02010180,0.05559656,0.02592264,0.17283988,0.05556140,-0.03096821,0.18021704,-0.12057717,-0.01359958,0.10042752,0.06765486,0.24439430,0.17597492,0.09898742,0.25065070,0.19807239,0.11094105,0.04804096,-0.00658593,0.09420293,0.00144931,0.10367351,0.03624509,0.00288050,0.02015755,0.07250497,0.02472808,0.07772611,0, 00:00:15.8
160,0.64521515,0.62216866,-0.07276779,-0.44677386,-0.22829439,-0.47579190,-0.20323601,-0.24990039,0.04780647,-0.04968063,-0.09526573,0.33891779,0.14370491,-0.24731913,0.04274023,-0.13926207,-0.29180777,0.18931158,0.01295703,0.10960088,-0.09170549,-0.17657074,-0.11416198,0.03366408,0.02020354,0.05635132,0.02693545,0.17294522,0.05529042,-0.02737935,0.19063702,-0.12558471,-0.02356467,0.09991633,0.06486713,0.24830487,0.17732309,0.09932873,0.25313118,0.20357114,0.11721183,0.04570391,-0.00755791,0.09891792,-0.00045734,0.10472409,0.03562642,0.00154971,0.01977354,0.07242104,0.02986907,0.08398394,0, 00:00:16.0
161,0.66573763,0.64391679,-0.07592149,-0.47001368,-0.24473442,-0.50793588,-0.22212812,-0.24995226,0.05216606,-0.05173206,-0.10093266,0.34229332,0.14967810,-0.25824320,0.03473154,-0.14338322,-0.31643179,0.19136961,0.01619512,0.11853801,-0.09529281,-0.18881585,-0.12407919,0.03511888,0.02130600,0.05776529,0.02830753,0.17384516,0.05546474,-0.02343824,0.20206581,-0.12916870,-0.03261282,0.10160546,0.06297994,0.25348282,0.17917280,0.10025752,0.25664434,0.20990087,0.12470826,0.04387915,-0.00654350,0.10518156,0.00000590,0.10680815,0.03580422,0.00069540,0.02010148,0.07365854,0.03583761,0.08969586,0, 00:00:16.0
162,0.68632388,0.66585928,-0.07889968,-0.49313238,-0.26164627,-0.54027200,-0.24096885,-0.24998364,0.05578181,-0.05302633,-0.10647164,0.34530801,0.15593614,-0.26869941,0.02731171,-0.14723895,-0.34064952,0.19391954,0.02012821,0.12755346,-0.09803957,-0.20097454,-0.13438192,0.03670800,0.02269228,0.05957169,0.02985620,0.17506574,0.05572023,-0.01995049,0.21402931,-0.13197064,-0.04154177,0.10362788,0.06137808,0.25894228,0.18116044,0.10138176,0.26027206,0.21643160,0.13329628,0.04279920,-0.00472116,0.11003224,0.00076729,0.10911168,0.03617797,0.00004767,0.02059197,0.07515597,0.04057880,0.09393695,0, 00:00:16.1
163,0.70706594,0.68815392,-0.08206332,-0.51607269,-0.27838737,-0.57253867,-0.25970235,-0.24977289,0.05984141,-0.05410388,-0.11198386,0.34848413,0.16215594,-0.27915439,0.02018147,-0.15092200,-0.36490113,0.19659458,0.02435752,0.13649642,-0.10068255,-0.21302316,-0.14506334,0.03835490,0.02430738,0.06161758,0.03139754,0.17643937,0.05613026,-0.01685401,0.22605972,-0.13440822,-0.05027333,0.10569797,0.05980737,0.26429790,0.18331842,0.10259447,0.26384285,0.22310123,0.14251377,0.04241601,-0.00278703,0.11400643,0.00151118,0.11142035,0.03664588,-0.00043339,0.02115842,0.07688560,0.04417355,0.09712546,0, 00:00:16.2
164,0.72773117,0.71035391,-0.08480503,-0.53878534,-0.29491347,-0.60475194,-0.27857268,-0.24969541,0.06429611,-0.05553297,-0.11738285,0.35119048,0.16835788,-0.28973365,0.01323391,-0.15444162,-0.38918504,0.19917780,0.02844820,0.14549424,-0.10396588,-0.22507426,-0.15575090,0.03962917,0.02572691,0.06365974,0.03288170,0.17783931,0.05651336,-0.01362837,0.23821221,-0.13672914,-0.05927669,0.10672271,0.05807643,0.26913416,0.18539435,0.10375055,0.26727989,0.22936799,0.15192920,0.04230716,-0.00202951,0.11589352,0.00126891,0.11329180,0.03693524,-0.00082941,0.02158755,0.07832966,0.04616375,0.09941081,0, 00:00:16.3
165,0.74815446,0.73270988,-0.08774763,-0.56196630,-0.31143349,-0.63730544,-0.29820129,-0.25016299,0.06823038,-0.05750861,-0.12339517,0.35413060,0.17460518,-0.30055055,0.00570758,-0.15828815,-0.41373882,0.20088837,0.03239965,0.15429471,-0.10805022,-0.23686935,-0.16723555,0.04036755,0.02571732,0.06510048,0.03404530,0.17853078,0.05631360,-0.01112207,0.24966379,-0.13915978,-0.06849059,0.10524806,0.05561091,0.27254403,0.18722421,0.10429404,0.26996508,0.23490083,0.16089143,0.04204015,-0.00179049,0.11431820,-0.00113597,0.11373830,0.03619398,-0.00173135,0.02110108,0.07867501,0.04530220,0.10006948,0, 00:00:16.5
166,0.76855356,0.75557393,-0.09062163,-0.58576626,-0.32849741,-0.67052358,-0.31824178,-0.25030139,0.07202812,-0.05935648,-0.13029622,0.35633400,0.18135144,-0.31128669,-0.00207690,-0.16241190,-0.43837568,0.20228055,0.03713736,0.16318084,-0.11228154,-0.24802585,-0.17822027,0.04089305,0.02521948,0.06595109,0.03491389,0.17875186,0.05582999,-0.00896969,0.26133257,-0.14090805,-0.07704431,0.10459653,0.05314654,0.27537730,0.18911183,0.10439651,0.27221844,0.23989533,0.17002742,0.04211891,-0.00099071,0.11403304,-0.00242382,0.11398373,0.03514390,-0.00292713,0.02028620,0.07890506,0.04304061,0.10032625,0, 00:00:16.5
167,0.78905410,0.77875328,-0.09321757,-0.60981131,-0.34595692,-0.70401669,-0.33765376,-0.24972233,0.07592458,-0.06040200,-0.13640875,0.35882327,0.18871568,-0.32152131,-0.00940944,-0.16656192,-0.46246168,0.20476685,0.04291322,0.17290831,-0.11562252,-0.25869006,-0.18847790,0.04205334,0.02547688,0.06724063,0.03612463,0.17966793,0.05597151,-0.00609916,0.27388263,-0.14267980,-0.08445254,0.10699815,0.05177459,0.27954900,0.19124827,0.10504821,0.27538651,0.24540338,0.18017137,0.04319110,0.00132851,0.11713122,-0.00055643,0.11575437,0.03499164,-0.00373635,0.02028909,0.08066982,0.04053566,0.10101891,0, 00:00:16.6
168,0.80963302,0.80122852,-0.09651648,-0.63316363,-0.36240026,-0.73666525,-0.35663506,-0.24875899,0.08087914,-0.06169226,-0.14226238,0.36063403,0.19573931,-0.33154574,-0.01594650,-0.17037931,-0.48658693,0.20765842,0.04806002,0.18317395,-0.11821324,-0.27011049,-0.19952734,0.04341334,0.02665438,0.06899048,0.03763483,0.18112937,0.05651622,-0.00254804,0.28670087,-0.14462644,-0.09219787,0.11014773,0.05089260,0.28479609,0.19375181,0.10617984,0.27929735,0.25153449,0.19044654,0.04462836,0.00414511,0.12015429,0.00172861,0.11820319,0.03534785,-0.00427942,0.02076557,0.08304899,0.03776417,0.10217149,0, 00:00:16.7
169,0.83036703,0.82291025,-0.10030248,-0.65544361,-0.37724495,-0.76882082,-0.37601158,-0.24749686,0.08710846,-0.06359371,-0.14773098,0.36253706,0.20219012,-0.34206924,-0.02228309,-0.17415825,-0.51163757,0.21033055,0.05179098,0.19210793,-0.12052083,-0.28261954,-0.21050742,0.04462608,0.02821053,0.07096664,0.03930299,0.18267691,0.05729130,0.00069520,0.29839498,-0.14703895,-0.10008579,0.11337169,0.05012291,0.29033226,0.19626643,0.10753836,0.28312826,0.25796148,0.19942756,0.04600888,0.00680633,0.12301283,0.00344741,0.12084229,0.03585844,-0.00466385,0.02131184,0.08533133,0.03604046,0.10483412,0, 00:00:16.8
170,0.85140139,0.84464163,-0.10390030,-0.67662549,-0.39071667,-0.80157191,-0.39635849,-0.24627945,0.09471750,-0.06613640,-0.15265614,0.36477777,0.20851804,-0.35300779,-0.02845849,-0.17782831,-0.53780007,0.21265870,0.05456862,0.19903409,-0.12320320,-0.29527748,-0.22153099,0.04585227,0.02985162,0.07314025,0.04105607,0.18420449,0.05819661,0.00367646,0.30920586,-0.14990781,-0.10760354,0.11677270,0.04937429,0.29591310,0.19887960,0.10886181,0.28686914,0.26452911,0.20750491,0.04746543,0.00876306,0.12553082,0.00467557,0.12358649,0.03650906,-0.00483946,0.02193820,0.08760670,0.03471282,0.10796126,0, 00:00:17.0
171,0.87224215,0.86621362,-0.10798080,-0.69796026,-0.40444338,-0.83459544,-0.41693401,-0.24564043,0.10178055,-0.06883264,-0.15801828,0.36673570,0.21452232,-0.36418423,-0.03509816,-0.18158057,-0.56399286,0.21443692,0.05718385,0.20557100,-0.12661153,-0.30811667,-0.23239863,0.04663561,0.03057430,0.07503947,0.04267903,0.18538256,0.05869643,0.00574453,0.31934795,-0.15328652,-0.11571518,0.11773792,0.04808547,0.30063248,0.20137352,0.10984866,0.29003462,0.27022928,0.21445803,0.04858056,0.00965961,0.12486055,0.00380486,0.12524851,0.03649664,-0.00531658,0.02196761,0.08883227,0.03159331,0.11031494,0, 00:00:17.0
172,0.89252144,0.88752079,-0.11228714,-0.71987504,-0.41869622,-0.86752230,-0.43791986,-0.24570240,0.10772873,-0.07153556,-0.16397673,0.36916453,0.22021347,-0.37559241,-0.04236671,-0.18564574,-0.59042406,0.21546490,0.05959344,0.21198031,-0.13006943,-0.32116804,-0.24426624,0.04691981,0.03005296,0.07633421,0.04389377,0.18570803,0.05862936,0.00687286,0.32912272,-0.15682288,-0.12455037,0.11694308,0.04592318,0.30411574,0.20359057,0.11011343,0.29231820,0.27522010,0.22089431,0.04913080,0.00999244,0.12262771,0.00168325,0.12556693,0.03552418,-0.00646878,0.02106687,0.08913574,0.02759664,0.11168048,0, 00:00:17.1
173,0.91290462,0.90883613,-0.11624768,-0.74158949,-0.43305853,-0.90047818,-0.45867071,-0.24522521,0.11384248,-0.07347125,-0.16951127,0.37063712,0.22620596,-0.38659361,-0.04909131,-0.18986110,-0.61641258,0.21715696,0.06289404,0.21871655,-0.13307910,-0.33384395,-0.25547475,0.04770187,0.03017181,0.07765470,0.04512293,0.18618993,0.05897515,0.00874980,0.33949357,-0.15938544,-0.13248986,0.11899965,0.04436541,0.30842927,0.20601399,0.11052056,0.29515436,0.28080732,0.22829564,0.05010059,0.01222774,0.12437666,0.00234789,0.12679784,0.03500790,-0.00768995,0.02052792,0.09056858,0.02463050,0.11338367,0, 00:00:17.2
174,0.93387777,0.93063051,-0.11969205,-0.76257795,-0.44702908,-0.93350393,-0.47886452,-0.24393046,0.12050319,-0.07522280,-0.17455266,0.37305227,0.23262917,-0.39735702,-0.05509667,-0.19391020,-0.64206254,0.21958235,0.06662434,0.22582984,-0.13551705,-0.34617612,-0.26567295,0.04902149,0.03151001,0.07949500,0.04667133,0.18742347,0.05979792,0.01079358,0.35039577,-0.16099554,-0.13969973,0.12258554,0.04326868,0.31386071,0.20862275,0.11152550,0.29872546,0.28709924,0.23627326,0.05168149,0.01551805,0.12783043,0.00434526,0.12925608,0.03526631,-0.00847824,0.02073301,0.09301950,0.02216126,0.11554263,0, 00:00:17.3
175,0.95492178,0.95246327,-0.12310322,-0.78314245,-0.46054620,-0.96640223,-0.49879923,-0.24219151,0.12779181,-0.07712320,-0.17947520,0.37710699,0.23913170,-0.40817818,-0.06088346,-0.19756772,-0.66758668,0.22208135,0.07042243,0.23312211,-0.13809131,-0.35820743,-0.27562580,0.05034828,0.03299996,0.08159302,0.04849020,0.18898503,0.06072928,0.01299679,0.36157799,-0.16218354,-0.14678700,0.12603840,0.04198942,0.31931075,0.21146938,0.11270069,0.30257222,0.29344308,0.24439487,0.05349518,0.01844056,0.13056277,0.00589696,0.13193265,0.03576445,-0.00915427,0.02112305,0.09551119,0.01958724,0.11777699,0, 00:00:17.5
176,0.97598642,0.97412199,-0.12654147,-0.80360818,-0.47384918,-0.99892336,-0.51891696,-0.24034257,0.13531174,-0.07903406,-0.18433453,0.38019153,0.24555157,-0.41898078,-0.06665695,-0.20107096,-0.69297475,0.22460674,0.07448255,0.24035719,-0.14056134,-0.37035432,-0.28579125,0.05187676,0.03468937,0.08381067,0.05051045,0.19064769,0.06181112,0.01537845,0.37290782,-0.16376543,-0.15398350,0.12938899,0.04077511,0.32456654,0.21445985,0.11392626,0.30641109,0.29999381,0.25269029,0.05543308,0.02167656,0.13283670,0.00704869,0.13472477,0.03642207,-0.00967740,0.02159602,0.09799328,0.01703494,0.12014263,0, 00:00:17.5
177,0.99701726,0.99557352,-0.13020909,-0.82430971,-0.48727611,-1.03166652,-0.53934276,-0.23847447,0.14301404,-0.08126597,-0.18924029,0.38365763,0.25162479,-0.42971170,-0.07305587,-0.20468332,-0.71869743,0.22709228,0.07823838,0.24784254,-0.14288630,-0.38267687,-0.29616082,0.05326698,0.03615199,0.08610143,0.05266256,0.19234918,0.06292291,0.01787536,0.38419482,-0.16686271,-0.16150846,0.13174255,0.03942515,0.32943147,0.21740262,0.11510270,0.31016284,0.30646369,0.26076749,0.05735978,0.02466272,0.13367692,0.00704036,0.13723385,0.03691571,-0.01012077,0.02201359,0.10038564,0.01363195,0.12246593,0, 00:00:17.6
178,1.01773036,1.01553977,-0.13506947,-0.84592611,-0.50085074,-1.06393874,-0.56018782,-0.23686883,0.15114652,-0.08452997,-0.19482818,0.38691166,0.25645143,-0.44086665,-0.08089070,-0.20864519,-0.74438429,0.22867410,0.08155942,0.25515237,-0.14589807,-0.39564854,-0.30776694,0.05409719,0.03649176,0.08770861,0.05441732,0.19346422,0.06356931,0.02008929,0.39529392,-0.16930285,-0.16986950,0.13155210,0.03743022,0.33295390,0.21990252,0.11562892,0.31317541,0.31176221,0.26785403,0.05884045,0.02599596,0.13148883,0.00461319,0.13826664,0.03642170,-0.01094925,0.02162506,0.10150960,0.00855888,0.12369637,0, 00:00:17.7
179,1.03879356,1.03391027,-0.14144912,-0.86770433,-0.51421112,-1.09612298,-0.58116055,-0.23526692,0.15983449,-0.08823330,-0.20066038,0.38912344,0.25979096,-0.45209801,-0.08937306,-0.21277478,-0.77045608,0.22980583,0.08491033,0.26259038,-0.14955415,-0.40890652,-0.31910029,0.05501737,0.03643556,0.08893068,0.05583083,0.19420868,0.06404291,0.02255124,0.40683937,-0.17248684,-0.17794713,0.13271149,0.03546731,0.33623222,0.22216637,0.11574321,0.31578895,0.31726661,0.27555034,0.06041813,0.02772954,0.13170317,0.00350639,0.13925888,0.03575250,-0.01198020,0.02102663,0.10266925,0.00368050,0.12503757,0, 00:00:17.8
180,1.06038213,1.05310380,-0.14697033,-0.88772506,-0.52689207,-1.12810922,-0.60160214,-0.23302454,0.16914026,-0.09109510,-0.20532523,0.39292911,0.26348004,-0.46311012,-0.09678660,-0.21625537,-0.79609621,0.23206696,0.08862101,0.27101931,-0.15219159,-0.42208451,-0.32951242,0.05642994,0.03750904,0.09064687,0.05750132,0.19563839,0.06517863,0.02598380,0.41938427,-0.17583169,-0.18502258,0.13668944,0.03439016,0.34030554,0.22418743,0.11634695,0.31924808,0.32384756,0.28484449,0.06272209,0.03107766,0.13563050,0.00523318,0.14192680,0.03620566,-0.01228074,0.02127926,0.10512586,0.00010411,0.12711826,0, 00:00:18.0
181,1.08139277,1.07409215,-0.15017247,-0.90554643,-0.53852212,-1.16034710,-0.62247759,-0.23116781,0.17799316,-0.09329038,-0.20984542,0.39628342,0.26907474,-0.47399151,-0.10273203,-0.21852416,-0.82156312,0.23502982,0.09249156,0.28020334,-0.15407906,-0.43470055,-0.33981735,0.05798476,0.03917630,0.09306804,0.05934858,0.19739936,0.06679296,0.03020041,0.43280706,-0.17775527,-0.19176528,0.14117385,0.03318147,0.34400716,0.22539765,0.11715730,0.32223010,0.33086744,0.29555771,0.06591696,0.03584930,0.13852993,0.00734185,0.14517958,0.03704126,-0.01160441,0.02200390,0.10791495,-0.00314913,0.12841609,0, 00:00:18.0
182,1.10203862,1.09615600,-0.15188524,-0.92340183,-0.54966241,-1.19316101,-0.64423305,-0.22967240,0.18606107,-0.09495119,-0.21435995,0.39952660,0.27578929,-0.48456490,-0.10825425,-0.22042209,-0.84738851,0.23791176,0.09587989,0.28956422,-0.15689769,-0.44545275,-0.34835672,0.05979536,0.04078290,0.09541184,0.06131502,0.19902934,0.06839260,0.03414610,0.44725192,-0.17956124,-0.19728683,0.14406143,0.03063893,0.34698454,0.22610220,0.11777400,0.32440975,0.33730939,0.30701482,0.06966389,0.04121695,0.14019279,0.00975628,0.14833033,0.03751668,-0.01064689,0.02265033,0.11035134,-0.00503072,0.12976326,0, 00:00:18.1
183,1.12129581,1.11556578,-0.15643451,-0.94022429,-0.56120294,-1.22398543,-0.66569501,-0.22719094,0.19312310,-0.09808292,-0.21900316,0.40242285,0.27981877,-0.49484581,-0.11465591,-0.22225705,-0.87210888,0.23995757,0.09819695,0.29875654,-0.16210026,-0.45462403,-0.35623413,0.06193183,0.04211137,0.09746230,0.06329813,0.20009971,0.07002472,0.03765955,0.46106756,-0.18054286,-0.20310433,0.14404628,0.02791659,0.34798819,0.22637407,0.11813830,0.32548669,0.34230518,0.31766883,0.07294146,0.04643146,0.14129075,0.01448777,0.15179929,0.03762264,-0.00987151,0.02325029,0.11224531,-0.00477039,0.13234761,0, 00:00:18.2
184,1.13639522,1.12640715,-0.16563547,-0.95722884,-0.57467949,-1.24735332,-0.68079227,-0.22216432,0.19950157,-0.10040208,-0.22445211,0.40193996,0.27856550,-0.50469995,-0.12365362,-0.22367325,-0.88877368,0.23991525,0.10015739,0.30808860,-0.16756865,-0.46383828,-0.36477640,0.06375203,0.04251017,0.09907222,0.06501957,0.20037432,0.07120132,0.04152885,0.47341451,-0.18000306,-0.21091132,0.14100297,0.02677680,0.34626320,0.22626179,0.11821898,0.32565466,0.34522748,0.32693529,0.07525750,0.04988701,0.13886449,0.01864292,0.15426198,0.03681196,-0.00925556,0.02341985,0.11283396,-0.00505135,0.13420501,0, 00:00:18.3
185,1.14535415,1.13519573,-0.17110720,-0.96870440,-0.58284330,-1.26007199,-0.68671054,-0.21853471,0.20315968,-0.10092659,-0.22959070,0.40404955,0.28034106,-0.51219386,-0.12960425,-0.22439235,-0.89514887,0.23772834,0.09958044,0.31387621,-0.17091472,-0.46636587,-0.36729169,0.06484322,0.04141574,0.09955165,0.06601895,0.19952422,0.07173213,0.04332362,0.48120129,-0.17982034,-0.21249080,0.13669227,0.02548809,0.34259191,0.22541867,0.11775618,0.32495868,0.34668052,0.33244851,0.07633169,0.05183124,0.13430166,0.02150608,0.15426227,0.03490325,-0.00911027,0.02283645,0.11212716,-0.00571365,0.13529325,0, 00:00:18.5
186,1.15084529,1.14254916,-0.17292376,-0.97314668,-0.58619100,-1.28000081,-0.70109183,-0.21616860,0.20540276,-0.10124606,-0.23296823,0.41133600,0.28329292,-0.51681376,-0.13167930,-0.22450985,-0.91086948,0.23602466,0.09859821,0.31797910,-0.17375879,-0.46079880,-0.36351570,0.06576238,0.04079480,0.09972252,0.06680534,0.19873783,0.07262185,0.04421804,0.48689607,-0.17820831,-0.20761393,0.13555063,0.02487415,0.33966914,0.22431643,0.11745607,0.32471105,0.34813961,0.33605608,0.07754729,0.05432462,0.13363758,0.02676367,0.15468542,0.03336589,-0.00899958,0.02262046,0.11228590,-0.00515338,0.13671331,0, 00:00:18.5
187,1.15480816,1.14389920,-0.17930301,-0.97584403,-0.58770663,-1.29778707,-0.71417826,-0.21271224,0.20799515,-0.10136244,-0.23614363,0.41765389,0.28153232,-0.52032632,-0.13207662,-0.22394234,-0.92538196,0.23514017,0.09834363,0.32197064,-0.17637362,-0.45516011,-0.36103445,0.06694298,0.04099636,0.10032460,0.06799673,0.19854715,0.07396030,0.04505790,0.49247929,-0.17527492,-0.20313364,0.13603792,0.02500790,0.33852756,0.22385436,0.11773283,0.32520136,0.34972110,0.33923393,0.07907923,0.05719990,0.13446011,0.03296898,0.15583611,0.03237758,-0.00873163,0.02292927,0.11345807,-0.00406446,0.13855924,0, 00:00:18.6
188,1.15762055,1.14306724,-0.18656035,-0.98029190,-0.58974534,-1.31225872,-0.72544461,-0.20864332,0.21103723,-0.10050331,-0.23887599,0.42174882,0.27820379,-0.52299088,-0.13413304,-0.22305401,-0.93765640,0.23451947,0.09862927,0.32568952,-0.17763425,-0.45011792,-0.35987446,0.06814145,0.04136786,0.10098784,0.06925888,0.19851282,0.07533856,0.04557776,0.49707761,-0.17265414,-0.19975951,0.13669816,0.02559794,0.33796817,0.22370245,0.11818988,0.32590675,0.35119972,0.34201181,0.08073012,0.05938201,0.13570818,0.03873096,0.15702578,0.03151184,-0.00854169,0.02330861,0.11479831,-0.00303743,0.14029318,0, 00:00:18.7
